2026-03-17 15:57:51,-3892,-3880,-3872,-3864,-3852,-3840,-3816,-3796,-3776,-3748,-3728,-3704,-3676,-3652,-3628,-3608,-3588,-3568,-3552,-3540,-3524,-3508,-3488,-3460,-3428,-3400,-3368,-3340,-3316,-3292,-3272,-3248,-3232,-3212,-3192,-3176,-3152,-3112,-3064,-3016,-2980,-2964,-2956,-2960,-2972,-2984,-2988,-2984,-2976,-2956,-2932,-2908,-2880,-2852,-2824,-2796,-2768,-2744,-2728,-2712,-2696,-2672,-2648,-2624,-2596,-2568,-2548,-2532,-2520,-2504,-2484,-2468,-2464,-2452,-2436,-2412,-2392,-2376,-2360,-2348,-2336,-2320,-2296,-2272,-2244,-2220,-2200,-2184,-2172,-2160,-2144,-2128,-2112,-2092,-2076,-2060,-2048,-2032,-2020,-2008,-1992,-1972,-1952,-1924,-1892,-1856,-1816,-1788,-1772,-1760,-1740,-1720,-1704,-1688,-1664,-1640,-1616,-1596,-1576,-1556,-1536,-1520,-1508,-1500,-1492,-1480,-1456,-1424,-1392,-1364,-1344,-1328,-1316,-1308,-1300,-1292,-1288,-1280,-1276,-1268,-1256,-1236,-1220,-1200,-1188,-1180,-1180,-1192,-1212,-1224,-1220,-1200,-1172,-1152,-1148,-1144,-1132,-1124,-1120,-1116,-1104,-1092,-1084,-1072,-1060,-1040,-1024,-1008,-992,-980,-976,-972,-964,-960,-948,-936,-924,-908,-896,-880,-868,-860,-852,-848,-836,-824,-816,-808,-792,-780,-776,-784,-788,-784,-772,-748,-716,-680,-644,-612,-572,-516,-432,-316,-176,-36,92,232,392,576,744,880,948,924,792,548,256,-20,-264,-488,-680,-824,-908,-944,-948,-920,-860,-784,-712,-652,-604,-576,-560,-552,-532,-500,-464,-436,-424,-424,-424,-424,-424,-416,-408,-392,-376,-360,-348,-340,-336,-332,-328,-328,-320,-300,-280,-260,-248,-244,-244,-244,-244,-244,-240,-228,-212,-192,-172,-168,-168,-172,-168,-160,-152,-148,-140,-120,-108,-100,-96,-96,-92,-84,-68,-52,-40,-28,-16,-8,-4,0,8,20,28,36,48,60,72,80,92,100,104,104,108,120,132,148,160,172,176,184,188,200,208,204,204,208,216,220,224,220,220,220,224,224,220,212,208,204,200,192,188,184,180,176,168,156,140,124,108,96,88,76,72,64,56,48,40,28,20,4,-4,-12,-16,-24,-28,-36,-44,-48,-48,-52,-56,-60,-64,-64,-64,-64,-64,-64,-64,-64,-60,-52,-48,-40,-32,-24,-12,0,12,28,36,36,32,20,8,-4,-20,-28,-36,-32,-28,-20,-12,0,8,20,28,44,52,56,60,60,64,72,84,100,108,112,108,100,84,68,48,36,28,24,16,8,4,4,8,16,20,28,36,44,48,48,52,56,56,60,64,64,64,64,64,68,68,68,68,68,72,76,76,72,72,72,72,72,76,76,84,88,88,88,92,92,92,92,96,96,100,104,108,108,112,112,112,112,108,108,112,116,120,124,124,124,124,128,128,132,136,140,144,148,152,152,160,168,180,188,192,200,208,216,224,232
2026-03-17 15:57:52,240,248,252,260,268,268,268,268,268,272,276,280,280,280,280,284,296,308,316,324,324,320,312,308,308,312,312,304,292,280,268,252,240,228,220,212,208,200,188,180,180,180,180,184,184,184,184,184,184,184,188,192,196,196,196,196,196,196,196,196,196,200,200,204,204,204,208,212,212,216,216,216,216,216,208,196,192,192,196,208,232,260,288,316,352,400,480,592,728,864,984,1120,1284,1464,1624,1744,1796,1756,1596,1332,1012,700,428,196,8,-120,-184,-196,-168,-112,-32,48,124,176,212,232,244,248,256,268,288,304,316,316,304,284,268,264,268,284,304,324,336,344,340,336,332,332,336,348,368,380,392,396,396,392,388,384,388,392,396,404,412,416,412,404,400,400,400,408,420,428,440,448,452,452,452,456,464,472,484,492,496,504,508,508,512,516,524,532,540,548,556,560,564,564,564,568,576,580,584,592,600,608,608,604,608,608,608,612,612,612,612,608,604,592,588,584,588,588,584,580,576,576,572,564,556,548,540,528,520,508,496,484,464,448,432,416,396,376,360,344,332,320,304,292,284,268,248,236,224,220,216,212,208,204,200,196,192,192,188,184,180,172,168,168,168,168,168,172,180,184,188,188,188,184,184,184,192,200,204,208,212,212,216,220,220,224,228,228,224,228,232,244,248,256,260,264,264,264,264,264,264,272,272,272,264,264,264,268,268,272,276,280,280,276,268,264,264,260,260,260,260,260,260,264,268,276,276,276,276,272,264,260,260,256,256,260,264,268,268,268,268,272,272,268,264,260,256,256,260,260,260,264,260,256,256,256,256,252,256,252,252,252,252,256,260,268,276,284,288,288,292,300,304,312,316,328,336,344,352,360,368,368,368,368,364,364,364,364,364,368,376,388,400,408,412,408,408,404,396,388,384,380,376,372,364,348,332,320,308,296,288,276,268,256,248,248,248,248,244,240,236,232,224,224,228,232,232,232,232,228,228,232,236,240,244,248,248,248,252,256,260,260,260,260,260,260,256,252,248,240,232,224,220,224,240,268,300,344,388,436,504,600,724,864,992,1108,1236,1392,1568,1736,1856,1904,1860,1688,1396,1064,740,452,212,12,-124,-208,-240,-220,-160,-80,0,68,116,144,160,180,196,216,240,264,280,288,288,276,264,252,248,256,276,296,308,324
2026-03-17 15:57:53,328,328,316,308,304,304,316,328,340,352,356,352,344,332,328,328,336,352,368,376,380,380,380,376,372,376,388,400,408,416,416,420,420,420,420,424,432,444,448,456,464,468,468,468,468,472,476,488,496,504,512,516,520,520,520,524,532,536,544,552,556,556,556,556,556,556,556,560,560,556,552,548,544,536,528,524,520,516,516,508,504,492,484,472,460,452,440,424,412,400,392,384,372,360,344,332,324,312,296,280,264,248,236,220,208,196,184,180,172,164,156,148,136,132,128,124,124,120,120,112,112,108,112,112,112,112,112,116,120,124,124,128,128,132,132,132,136,140,140,136,136,136,140,140,140,140,148,148,152,156,160,160,160,160,160,164,168,172,172,176,180,176,176,180,180,176,176,176,172,172,172,172,172,168,168,168,168,168,164,160,156,156,160,160,156,152,148,148,148,144,140,132,128,128,132,132,132,132,132,136,136,136,136,136,132,128,124,120,120,120,116,116,116,120,120,128,132,136,140,148,152,152,152,160,164,168,172,180,188,188,192,196,200,200,200,196,196,200,200,200,200,204,204,212,220,228,236,240,236,236,232,224,224,220,216,208,196,180,160,136,120,104,92,80,68,60,44,36,32,32,32,32,32,32,32,28,28,28,28,32,36,32,28,20,12,12,20,24,32,36,44,44,44,44,40,36,28,28,28,32,28,20,8,0,-8,-12,-8,0,16,40,72,108,152,216,304,428,568,704,824,960,1132,1324,1504,1640,1708,1676,1504,1212,864,540,260,16,-180,-320,-396,-408,-376,-316,-236,-152,-80,-28,0,8,12,12,20,32,52,72,88,88,72,56,40,32,32,48,60,76,88,92,88,76,64,56,60,76,92,112,116,116,112,104,96,92,100,112,120,128,132,136,132,128,124,124,132,140,152,164,168,168,168,164,164,164,164,168,176,188,200,208,212,212,208,204,208,220,228,236,244,252,256,264,268,276,280,284,288,296,304,312,324,336,348,356,352,336,324,316,312,304,292,276,268,268,268,268,272,280,284,280,268,248,228,204,188,176,168,168,168,160,136,104,76,52,44,48,48,44,36,20,0,-12,-12,-16,-24,-36,-48,-56,-68,-88,-108,-116,-120,-120,-124,-124,-128,-128,-128,-136,-136,-136,-140,-140,-140,-144,-152,-152,-152,-148,-136,-124,-112,-108,-108,-108,-112,-116
2026-03-17 15:57:54,-124,-128,-128,-124,-116,-112,-108,-108,-112,-116,-112,-112,-112,-116,-124,-124,-120,-120,-124,-128,-124,-120,-116,-116,-116,-112,-116,-120,-124,-128,-128,-128,-124,-124,-132,-136,-136,-136,-136,-136,-140,-144,-144,-144,-148,-152,-156,-160,-164,-164,-164,-164,-168,-176,-184,-192,-192,-192,-192,-192,-192,-188,-188,-188,-192,-196,-196,-200,-204,-208,-208,-212,-212,-220,-224,-224,-224,-224,-224,-228,-228,-220,-216,-212,-216,-212,-208,-200,-188,-180,-176,-172,-172,-172,-168,-164,-156,-152,-152,-152,-152,-156,-156,-152,-144,-144,-144,-144,-144,-136,-128,-120,-112,-104,-104,-108,-112,-120,-124,-132,-140,-148,-160,-172,-192,-208,-224,-236,-248,-260,-268,-284,-296,-308,-316,-324,-324,-324,-324,-324,-324,-324,-324,-328,-328,-328,-324,-324,-328,-328,-332,-336,-332,-332,-332,-328,-324,-324,-324,-324,-324,-324,-324,-328,-328,-328,-328,-336,-344,-356,-364,-368,-368,-360,-340,-316,-284,-248,-208,-156,-80,24,152,276,388,508,660,836,1000,1124,1184,1156,1016,768,464,172,-84,-308,-492,-628,-708,-736,-716,-664,-592,-516,-448,-400,-372,-352,-336,-328,-312,-296,-276,-260,-248,-248,-256,-268,-280,-288,-284,-276,-260,-244,-236,-232,-236,-244,-252,-256,-256,-244,-228,-220,-212,-208,-212,-216,-220,-224,-220,-212,-200,-188,-180,-176,-180,-184,-188,-188,-184,-176,-168,-160,-148,-140,-136,-140,-140,-140,-132,-120,-112,-100,-92,-88,-88,-88,-88,-84,-80,-72,-64,-60,-56,-52,-52,-48,-48,-40,-32,-28,-20,-12,-4,0,0,0,4,4,8,12,12,12,16,20,16,12,8,4,0,0,-4,-4,-8,-12,-16,-20,-28,-36,-44,-52,-60,-72,-80,-96,-108,-120,-132,-144,-156,-172,-188,-200,-208,-220,-236,-248,-264,-272,-284,-296,-304,-308,-316,-324,-332,-336,-344,-348,-356,-360,-368,-368,-372,-372,-376,-376,-376,-380,-380,-376,-376,-376,-376,-380,-384,-384,-384,-380,-376,-376,-372,-368,-364,-360,-356,-356,-356,-356,-356,-356,-356,-352,-348,-348,-348,-352,-352,-348,-348,-348,-352,-352,-352,-352,-348,-344,-344,-348,-348,-352,-352,-352,-348,-352,-356,-352,-348,-352,-352,-348,-348,-348,-356,-360,-364,-364,-368,-372,-376,-376,-376,-380,-380,-376,-380,-380,-376,-380,-384,-388,-388,-388,-388,-388,-392,-392,-392,-396,-396,-392,-392,-392,-388,-388,-392,-392,-392,-392,-392,-392,-392,-392,-396,-396,-392,-392,-392,-384,-376,-368,-364,-364,-364,-360,-348,-340,-336,-332,-324,-320,-316,-308,-300,-292,-288,-292,-296,-296,-296,-292,-288,-284,-280,-272,-260,-252,-240,-232,-232,-232,-236,-240,-244,-252,-256,-264,-272,-292,-312,-332,-348,-360,-368,-376,-388,-396
2026-03-17 15:57:55,-404,-412,-416,-416,-416,-420,-420,-420,-428,-432,-432,-428,-428,-428,-428,-428,-428,-424,-424,-424,-424,-424,-428,-428,-424,-424,-428,-428,-432,-432,-432,-428,-424,-424,-424,-428,-440,-452,-460,-464,-456,-440,-412,-376,-340,-296,-248,-176,-76,52,196,332,456,596,768,952,1116,1228,1264,1196,996,688,352,40,-232,-468,-648,-768,-832,-844,-804,-732,-648,-564,-496,-456,-432,-424,-416,-400,-380,-356,-328,-312,-308,-316,-328,-340,-352,-356,-348,-332,-312,-300,-288,-284,-288,-296,-304,-308,-304,-292,-276,-264,-256,-260,-264,-272,-280,-284,-280,-268,-252,-240,-228,-224,-224,-224,-228,-220,-216,-212,-200,-188,-180,-176,-168,-172,-176,-176,-168,-156,-140,-124,-116,-116,-120,-120,-120,-116,-112,-104,-96,-84,-76,-68,-64,-56,-56,-56,-52,-40,-32,-24,-16,-12,-8,-4,0,0,0,4,4,4,4,0,0,0,-4,-8,-8,-8,-8,-12,-16,-20,-28,-36,-48,-60,-68,-76,-84,-96,-108,-120,-132,-148,-164,-180,-192,-208,-220,-228,-244,-256,-268,-284,-296,-308,-316,-324,-332,-340,-348,-356,-364,-376,-380,-388,-392,-396,-400,-404,-408,-412,-412,-412,-412,-408,-408,-408,-404,-404,-404,-400,-400,-400,-404,-404,-400,-400,-396,-392,-388,-384,-380,-380,-384,-384,-380,-380,-380,-380,-380,-380,-376,-376,-376,-372,-368,-368,-368,-372,-376,-376,-372,-372,-368,-368,-368,-372,-368,-368,-368,-368,-368,-372,-380,-380,-380,-380,-380,-380,-384,-384,-384,-384,-388,-388,-392,-400,-400,-400,-400,-400,-400,-400,-400,-400,-400,-404,-404,-404,-404,-404,-404,-404,-408,-408,-408,-408,-404,-404,-404,-404,-400,-396,-396,-392,-384,-376,-364,-356,-352,-344,-332,-328,-324,-316,-312,-312,-308,-300,-296,-296,-300,-308,-308,-312,-316,-320,-316,-308,-296,-284,-268,-260,-256,-256,-260,-268,-276,-280,-280,-284,-292,-304,-320,-340,-360,-372,-384,-392,-400,-412,-420,-428,-436,-444,-444,-448,-448,-444,-448,-448,-448,-448,-452,-452,-456,-456,-460,-460,-460,-460,-456,-456,-452,-448,-448,-444,-440,-440,-440,-440,-440,-444,-444,-444,-444,-440,-436,-436,-436,-424,-392,-348,-308,-272,-248,-236,-232,-224,-192,-124,-8,124,260,392,548,744,952,1128,1256,1304,1232,1008,668,300,-40,-332,-568,-728,-812,-828,-776,-676,-556,-436,-328,-240,-188,-176,-196,-228,-252,-272,-280,-292,-312,-344,-388,-440,-488,-532,-560,-568,-556,-536,-512,-484,-456,-428,-408,-396,-380,-372,-364,-352,-340,-328,-316,-308,-300,-292,-284,-272,-256,-228,-196,-168,-152,-144,-144,-148,-152,-164,-176,-188,-200,-200,-192,-180,-180,-188,-192,-204,-216,-228,-236,-236,-228,-212,-188,-164,-140,-120,-100,-80
2026-03-17 15:57:56,-60,-44,-28,-16,-16,-24,-36,-48,-52,-52,-48,-48,-56,-56,-52,-40,-24,-8,4,16,24,28,28,16,0,-16,-28,-36,-36,-32,-24,-20,-20,-24,-28,-36,-48,-64,-88,-108,-128,-148,-160,-168,-176,-188,-192,-200,-208,-216,-220,-224,-224,-220,-208,-196,-176,-172,-188,-228,-280,-332,-380,-416,-436,-444,-444,-444,-436,-436,-436,-436,-428,-420,-416,-408,-404,-396,-388,-376,-368,-360,-352,-344,-336,-332,-328,-328,-324,-324,-320,-316,-312,-312,-316,-316,-312,-308,-304,-300,-300,-292,-288,-292,-300,-308,-312,-312,-308,-296,-288,-284,-280,-276,-276,-280,-276,-276,-276,-268,-264,-260,-252,-252,-264,-276,-288,-292,-292,-292,-292,-300,-308,-308,-312,-312,-312,-312,-308,-308,-308,-308,-308,-312,-312,-308,-304,-296,-292,-296,-304,-316,-316,-312,-308,-304,-296,-292,-288,-280,-276,-272,-276,-280,-292,-304,-316,-324,-328,-332,-328,-320,-312,-300,-296,-288,-276,-264,-256,-252,-240,-224,-216,-208,-204,-196,-192,-188,-188,-192,-204,-208,-208,-200,-196,-204,-212,-208,-200,-188,-180,-168,-160,-156,-160,-164,-168,-168,-164,-160,-164,-172,-180,-196,-212,-228,-244,-256,-268,-284,-296,-308,-316,-320,-328,-328,-328,-320,-316,-316,-316,-320,-320,-320,-316,-316,-320,-320,-320,-320,-320,-324,-324,-332,-340,-344,-340,-332,-320,-312,-312,-316,-320,-324,-328,-328,-328,-324,-328,-336,-344,-348,-340,-324,-300,-272,-248,-220,-184,-132,-48,68,204,332,456,604,776,960,1124,1236,1264,1192,996,700,372,76,-164,-356,-496,-580,-612,-608,-580,-532,-480,-420,-364,-316,-280,-256,-240,-228,-224,-216,-208,-200,-192,-188,-188,-192,-204,-216,-224,-224,-216,-208,-204,-200,-196,-192,-188,-180,-168,-160,-156,-148,-132,-120,-108,-96,-92,-80,-60,-44,-36,-40,-52,-76,-104,-120,-128,-120,-108,-96,-84,-72,-64,-56,-48,-44,-44,-44,-48,-40,-28,-16,-4,0,4,8,16,20,28,40,56,68,72,76,84,84,84,84,84,88,92,96,100,108,116,128,140,148,148,152,156,168,172,172,168,164,164,164,164,160,156,152,144,136,124,108,104,100,96,92,92,84,68,56,44,36,24,8,0,-8,-16,-32,-48,-64,-80,-88,-100,-108,-112,-120,-124,-132,-140,-152,-160,-172,-180,-192,-196,-196,-196,-196,-196,-192,-184,-184,-188,-192,-192,-192,-192,-180,-172,-168,-164,-160,-156,-156,-160,-160,-156,-152,-144,-140,-132,-124,-116,-108,-104,-100,-96,-96,-96,-104,-112,-120,-128,-128,-128,-124,-120,-112,-108,-108,-112,-112,-112,-112,-108,-104,-100,-100,-100,-100,-96,-96,-92,-92,-88,-88,-92,-96,-104,-112,-112,-108
2026-03-17 15:57:57,-108,-104,-108,-112,-112,-112,-108,-104,-96,-92,-92,-96,-100,-100,-96,-92,-100,-108,-112,-116,-124,-124,-124,-132,-136,-132,-124,-116,-104,-84,-72,-68,-68,-68,-60,-48,-36,-32,-32,-24,-16,-8,-4,0,8,24,36,28,16,8,0,-8,-4,0,4,8,8,4,0,-4,0,0,4,8,20,20,4,-8,-24,-56,-88,-108,-124,-140,-148,-148,-152,-152,-156,-152,-148,-148,-144,-144,-152,-164,-172,-180,-184,-188,-188,-184,-176,-164,-152,-140,-136,-140,-148,-160,-172,-180,-180,-180,-176,-168,-164,-164,-164,-156,-144,-136,-140,-148,-156,-152,-136,-112,-84,-52,-20,16,68,148,268,408,532,640,752,896,1056,1212,1328,1384,1364,1232,992,688,384,100,-128,-296,-408,-464,-484,-480,-444,-396,-348,-304,-260,-224,-188,-160,-132,-100,-80,-64,-48,-36,-32,-28,-20,-16,-12,-4,-4,-8,-4,0,8,20,32,40,44,44,36,24,8,0,0,-4,-4,4,24,40,52,60,76,92,96,100,100,96,84,72,64,52,36,36,48,60,72,80,84,84,92,108,124,136,148,160,180,200,224,260,300,336,360,360,340,300,248,196,152,120,104,108,116,132,160,192,228,256,268,272,268,256,240,216,200,192,196,200,200,208,224,240,248,248,252,256,256,244,224,204,192,204,244,288,316,304,252,188,132,88,60,40,8,-36,-100,-168,-224,-268,-292,-288,-276,-264,-252,-232,-216,-208,-204,-200,-204,-212,-220,-220,-216,-204,-188,-160,-144,-148,-168,-188,-200,-196,-184,-164,-136,-100,-56,-28,-32,-72,-132,-204,-272,-320,-336,-336,-328,-316,-304,-296,-284,-272,-264,-256,-244,-228,-220,-212,-208,-204,-204,-204,-196,-180,-152,-116,-88,-80,-80,-80,-92,-124,-156,-176,-196,-216,-228,-228,-236,-240,-248,-252,-264,-276,-288,-296,-292,-288,-288,-284,-280,-276,-276,-268,-260,-260,-256,-248,-244,-240,-232,-220,-204,-204,-220,-236,-244,-252,-252,-244,-232,-228,-220,-208,-200,-192,-196,-200,-196,-188,-184,-188,-188,-188,-192,-192,-188,-184,-180,-172,-172,-176,-176,-184,-192,-204,-216,-228,-244,-260,-276,-296,-312,-320,-328,-328,-332,-340,-352,-360,-368,-376,-384,-384,-388,-388,-388,-392,-396,-396,-392,-388,-384,-384,-384,-376,-368,-356,-356,-368,-388,-412,-436,-452,-468,-472,-472,-472,-472,-468,-464,-452,-440,-432,-440,-464,-496,-532,-556,-556,-536,-488,-432,-372,-316,-260,-180,-68,68,216,348,460,580,728,876,992,1060,1064,976,772,484,176,-116,-372,-564,-700,-792,-840,-848,-828,-788,-732,-672,-612,-572,-544,-516,-492,-472,-456,-432,-400,-360,-320
2026-03-17 15:57:58,-288,-280,-300,-336,-380,-428,-460,-472,-472,-476,-480,-488,-500,-504,-500,-488,-468,-444,-420,-400,-392,-388,-384,-376,-368,-356,-344,-332,-332,-332,-328,-320,-308,-296,-288,-280,-272,-264,-260,-264,-276,-292,-300,-304,-304,-300,-284,-260,-240,-240,-240,-248,-244,-216,-168,-100,-32,4,4,-12,-60,-124,-188,-224,-244,-248,-240,-224,-208,-192,-176,-160,-148,-136,-136,-140,-148,-144,-128,-112,-104,-104,-112,-124,-136,-148,-156,-156,-156,-164,-176,-188,-196,-196,-188,-184,-184,-184,-192,-196,-208,-220,-236,-244,-248,-256,-272,-288,-308,-332,-360,-388,-408,-428,-444,-456,-464,-468,-468,-476,-480,-492,-500,-508,-508,-508,-504,-504,-500,-500,-496,-488,-476,-468,-468,-472,-480,-488,-496,-504,-508,-508,-500,-488,-468,-444,-408,-388,-392,-404,-428,-460,-492,-512,-516,-512,-500,-480,-464,-452,-452,-452,-448,-448,-448,-452,-460,-460,-460,-460,-464,-464,-460,-456,-456,-452,-452,-448,-448,-444,-444,-440,-432,-424,-416,-408,-404,-412,-420,-436,-456,-468,-464,-448,-432,-420,-420,-432,-448,-464,-484,-504,-516,-528,-532,-528,-520,-516,-508,-500,-496,-484,-464,-440,-412,-388,-372,-364,-352,-340,-344,-368,-392,-424,-464,-488,-496,-492,-480,-468,-460,-448,-436,-424,-416,-408,-396,-388,-372,-352,-320,-288,-264,-264,-272,-288,-312,-344,-372,-384,-384,-372,-360,-352,-356,-368,-384,-408,-428,-444,-456,-472,-492,-500,-512,-516,-508,-484,-452,-424,-408,-408,-424,-448,-472,-484,-492,-496,-496,-484,-472,-456,-444,-432,-428,-432,-436,-432,-420,-408,-400,-392,-388,-396,-416,-428,-436,-452,-464,-472,-480,-484,-480,-468,-440,-396,-344,-292,-228,-160,-76,28,152,256,356,472,624,808,992,1136,1212,1196,1064,820,520,204,-88,-340,-544,-700,-796,-840,-832,-788,-720,-640,-556,-476,-400,-340,-296,-272,-256,-244,-244,-252,-260,-264,-248,-220,-204,-200,-200,-204,-200,-192,-172,-160,-160,-184,-212,-240,-256,-264,-260,-248,-228,-208,-184,-160,-136,-112,-96,-100,-100,-96,-92,-96,-100,-100,-104,-108,-100,-84,-56,-24,4,32,52,64,68,64,56,40,20,4,0,0,28,64,100,120,124,112,100,84,80,84,84,88,100,128,160,184,204,220,240,264,292,332,380,412,416,388,340,288,252,220,196,176,160,140,124,116,112,120,136,156,168,172,180,192,212,216,212,212,212,200,192,180,172,168,160,136,112,92,68,60,60,48,20,-4,-32,-44,-24,0,0,-20,-48,-76,-84,-48,24,100,160,204,196,128,28,-60,-144,-224,-272,-276,-248,-216,-184,-164,-144,-124,-104,-88,-80,-76,-52,-24,-4,8,16,16
2026-03-17 15:57:59,8,8,16,20,24,32,36,48,64,80,88,100,132,184,228,248,232,168,80,0,-44,-64,-64,-52,-36,-20,-8,4,12,20,28,32,36,40,44,56,72,88,96,108,112,108,100,80,68,68,68,64,60,56,56,60,68,72,72,72,84,108,132,148,156,140,116,84,56,36,28,32,48,68,88,104,120,140,176,208,224,224,220,216,204,196,188,188,200,212,220,224,224,228,236,248,256,260,264,264,252,244,244,244,244,236,228,224,224,232,240,248,228,188,148,120,100,88,88,96,108,116,120,120,120,120,116,116,120,120,124,124,128,128,124,124,128,132,136,140,136,128,116,112,120,144,160,164,172,180,188,184,176,164,144,120,104,100,120,152,180,212,244,284,328,392,488,616,752,876,992,1120,1280,1452,1600,1688,1696,1604,1396,1104,796,504,252,44,-100,-184,-204,-192,-152,-96,-36,16,68,120,160,192,216,236,260,284,312,340,356,368,364,356,344,348,368,396,416,424,420,400,372,348,328,316,312,308,304,308,316,324,332,344,352,364,380,396,408,428,448,464,476,484,484,488,492,504,520,548,584,612,616,600,576,540,500,476,476,488,500,500,504,516,528,536,556,580,604,624,640,652,664,672,672,668,672,684,700,712,728,744,752,756,752,748,744,748,748,748,748,744,744,744,748,748,756,772,784,796,800,796,788,776,752,728,704,680,660,644,620,596,580,572,568,568,560,556,548,540,528,516,500,484,468,464,460,452,444,436,428,424,416,416,420,424,420,408,392,376,364,368,372,368,360,356,364,372,372,376,380,384,388,388,384,380,384,392,404,416,424,420,420,420,424,428,428,428,424,432,440,444,440,436,440,448,452,460,464,468,468,472,468,476,488,500,508,512,500,484,464,436,408,396,400,404,412,420,432,444,452,444,440,448,452,448,452,452,452,452,448,444,444,440,432,428,428,428,432,440,448,456,464,476,484,480,472,460,444,440,436,436,432,428,436,444,456,464,472,484,492,496,500,500,500,508,524,540,552,564,572,572,572,580,600,624,640,652,656,652,640,616,588,564,536,508,476,456,440,420,400,380,360,344,336,336,340,340,340,340,340,340,336,336,340,352,364,376,396,420,428,424,420,416,416,420,428,432,432,432,424,412,400,384,360,332,300,276,264,256,248,252
2026-03-17 15:58:00,252,248,248,248,256,272,304,336,372,404,432,472,536,640,772,916,1036,1144,1268,1416,1552,1664,1728,1716,1616,1424,1144,844,572,344,168,44,-28,-60,-52,-20,28,88,148,200,244,276,308,332,352,364,372,384,392,396,396,392,388,380,384,392,404,416,424,432,428,420,412,408,412,420,432,444,452,460,472,480,476,476,480,492,504,516,524,524,520,516,512,508,508,504,504,508,516,524,532,532,528,528,528,536,544,552,556,564,572,580,584,588,592,596,600,608,624,640,652,656,656,652,652,652,656,652,652,652,656,664,668,672,680,680,680,688,696,700,704,700,692,684,680,676,680,684,688,684,684,680,668,656,644,636,632,628,616,600,580,560,540,516,500,492,480,472,456,436,416,404,388,372,356,348,336,324,320,312,300,288,280,268,260,252,248,256,260,256,248,244,244,236,236,240,244,248,248,252,256,256,252,248,244,244,244,244,244,248,256,264,268,268,264,272,280,288,288,284,280,272,264,252,244,252,264,272,280,288,288,280,268,260,252,256,260,260,264,268,272,272,268,268,268,264,256,248,248,248,252,248,248,248,244,236,228,220,212,212,212,208,204,200,200,208,212,212,204,200,196,196,196,192,188,184,188,192,196,200,200,192,184,184,184,184,188,192,200,196,196,200,204,204,204,216,228,232,236,244,248,256,256,256,260,264,264,268,268,272,276,284,292,296,300,296,284,272,272,272,272,272,268,268,268,272,276,276,268,264,248,228,204,188,176,168,164,160,156,148,140,128,120,112,108,104,104,100,100,96,88,88,88,92,92,92,92,88,88,84,92,96,92,80,76,76,76,76,80,84,92,96,96,92,88,84,76,60,56,56,60,68,88,116,144,172,208,268,364,488,624,740,824,916,1048,1192,1316,1400,1404,1316,1132,864,568,296,72,-100,-228,-304,-340,-336,-300,-248,-196,-144,-100,-60,-24,8,36,60,80,100,120,144,160,164,164,160,160,164,172,176,184,188,192,192,184,184,180,184,184,188,192,196,192,192,192,192,192,196,200,212,216,220,224,236,240,244,248,256,260,268,268,272,276,280,288,296,300,304,308,316,320,324,328,328,336,340,344,352,348,348,352,356,360,364,364,368,372,376,384,396,404,412,420,432,444,448,448,444,444,448,448,448,448,452,452,448,436,432
2026-03-17 15:58:01,432,420,416,412,408,404,392,384,380,376,372,368,360,352,336,320,304,284,268,248,232,224,216,208,196,188,172,152,140,132,124,120,116,112,104,96,84,76,68,60,52,48,44,40,32,24,16,8,4,4,0,8,12,8,4,0,0,0,0,0,0,4,16,28,36,40,44,44,40,36,36,36,40,44,52,60,64,60,56,52,52,52,52,48,44,36,28,28,28,28,28,32,32,32,32,24,20,16,16,12,8,16,24,32,32,28,20,16,8,4,4,4,8,12,12,12,8,0,0,-12,-16,-20,-24,-24,-20,-16,-16,-20,-16,-8,-4,-4,-8,-20,-24,-24,-28,-32,-32,-28,-20,-24,-32,-36,-36,-32,-28,-20,-20,-20,-20,-16,-16,-8,0,8,16,20,20,24,28,36,44,52,52,52,56,56,48,40,40,48,56,68,80,88,84,76,72,64,60,56,52,40,32,24,20,16,4,-8,-16,-24,-36,-48,-52,-52,-56,-64,-72,-80,-88,-88,-80,-80,-80,-84,-96,-108,-108,-104,-96,-84,-76,-68,-56,-52,-68,-84,-96,-108,-108,-108,-108,-104,-108,-116,-120,-120,-116,-116,-116,-120,-124,-136,-144,-148,-132,-100,-64,-32,0,20,40,68,140,248,380,508,616,732,884,1056,1224,1348,1396,1348,1188,920,600,276,0,-232,-412,-528,-588,-600,-572,-516,-444,-376,-316,-264,-220,-176,-140,-108,-80,-60,-44,-36,-28,-24,-28,-32,-40,-48,-44,-32,-20,-12,-4,0,8,12,16,16,16,24,24,20,16,8,4,4,8,16,28,40,52,64,72,68,60,60,56,52,52,56,56,60,76,100,108,112,124,136,144,140,144,152,160,168,168,168,168,176,188,204,216,224,228,228,232,236,240,240,240,244,248,256,264,268,268,276,280,276,276,276,280,284,296,300,300,296,296,292,288,284,284,280,280,276,276,280,280,268,256,240,228,216,204,192,176,168,156,156,160,168,160,140,112,76,36,-4,-48,-76,-92,-96,-96,-92,-88,-84,-76,-72,-64,-52,-40,-32,-20,-8,0,0,0,-12,-8,0,-12,-32,-64,-104,-152,-188,-212,-224,-232,-236,-232,-220,-196,-176,-156,-132,-116,-112,-112,-116,-116,-112,-108,-104,-104,-96,-84,-80,-76,-80,-80,-76,-60,-44,-28,-24,-24,-40,-60,-76,-88,-96,-100,-92,-84,-76,-72,-68,-68,-68,-64,-56,-56,-60,-68,-84,-100,-120,-132,-136,-120,-96,-72,-56,-48,-52,-64,-84,-100,-112,-120,-128,-136,-144,-136,-128,-120,-116,-120,-124,-124,-120,-124,-132
2026-03-17 15:58:02,-136,-132,-132,-136,-136,-136,-128,-116,-108,-100,-92,-92,-96,-104,-104,-104,-116,-128,-116,-84,-52,-32,-16,-16,-36,-60,-84,-92,-92,-84,-64,-48,-48,-56,-68,-84,-88,-80,-68,-72,-76,-76,-72,-64,-48,-44,-40,-32,-20,-12,0,16,20,24,28,28,20,20,28,36,60,84,96,88,64,24,-12,-56,-92,-124,-148,-160,-168,-172,-176,-184,-196,-200,-200,-196,-192,-184,-180,-176,-168,-156,-144,-136,-132,-128,-128,-128,-124,-124,-124,-132,-144,-148,-144,-140,-144,-144,-148,-148,-152,-152,-164,-184,-192,-200,-204,-204,-200,-180,-148,-104,-64,-24,20,84,176,296,436,576,700,828,976,1148,1316,1452,1524,1504,1360,1088,744,408,116,-120,-304,-428,-500,-528,-516,-472,-416,-352,-288,-240,-204,-176,-152,-128,-112,-100,-80,-68,-56,-52,-48,-52,-56,-60,-60,-60,-60,-60,-60,-48,-40,-32,-28,-20,-12,0,8,16,16,28,64,108,140,152,152,132,92,52,16,-8,-28,-40,-40,-32,-20,-12,0,12,28,40,52,56,52,48,48,40,36,44,64,80,100,116,124,128,136,152,172,188,200,212,224,228,228,224,224,232,252,268,276,280,272,256,236,220,204,200,196,192,188,196,208,224,232,236,236,236,240,248,260,264,248,220,192,168,164,172,180,184,184,172,152,136,128,112,88,56,24,-8,-28,-40,-44,-44,-44,-44,-40,-28,-16,-8,0,4,0,-4,-24,-48,-64,-68,-60,-52,-36,-32,-44,-76,-100,-120,-144,-168,-180,-180,-172,-160,-152,-148,-140,-116,-92,-68,-56,-60,-68,-76,-84,-84,-84,-80,-80,-76,-68,-56,-52,-52,-44,-36,-40,-60,-80,-92,-92,-88,-68,-48,-28,-24,-24,-36,-52,-64,-60,-44,-36,-32,-36,-36,-28,-20,-12,-8,-4,0,-4,-28,-60,-84,-100,-100,-100,-88,-72,-68,-84,-112,-140,-160,-168,-168,-160,-152,-132,-112,-104,-112,-120,-116,-116,-116,-104,-64,-20,8,36,48,32,0,-48,-108,-160,-184,-184,-176,-164,-148,-132,-128,-136,-148,-148,-136,-120,-100,-72,-44,-24,-8,0,8,20,28,32,32,32,24,24,32,44,60,68,68,64,48,36,24,4,-20,-48,-84,-124,-160,-172,-168,-148,-124,-112,-120,-136,-152,-172,-200,-220,-228,-212,-176,-140,-116,-100,-84,-72,-72,-96,-128,-152,-156,-156,-156,-156,-168,-200,-224,-232,-236,-228,-212,-200,-196,-200,-212,-236,-256,-264,-260,-252,-240,-228,-220,-212,-196,-172,-144,-120,-104,-72,-16,80,228,404,572,704,788,864,960,1092,1228,1340,1400,1380,1228,960,632,304,0,-244,-440,-580,-644
2026-03-17 15:58:03,-640,-580,-484,-380,-268,-172,-100,-56,-40,-52,-92,-124,-128,-108,-76,-56,-52,-68,-104,-152,-204,-236,-240,-232,-216,-204,-192,-172,-144,-124,-104,-80,-64,-60,-56,-40,-16,8,32,48,40,24,8,-4,-8,-12,-12,-20,-28,-44,-48,-36,-8,12,20,28,40,56,68,60,44,36,40,56,72,84,104,124,144,172,192,204,208,192,160,120,72,40,32,48,80,120,164,192,196,192,188,180,160,164,192,220,252,292,324,328,320,312,296,280,268,260,264,268,264,260,248,224,188,144,108,88,68,56,52,60,56,40,24,4,-8,-16,-16,-24,-20,-20,-28,-36,-40,-36,-28,-12,0,8,0,-28,-68,-112,-148,-168,-180,-168,-148,-144,-160,-176,-180,-184,-196,-220,-244,-248,-212,-148,-96,-72,-68,-92,-132,-164,-180,-184,-168,-140,-116,-84,-32,4,16,0,-36,-92,-156,-204,-236,-244,-232,-204,-176,-156,-152,-152,-160,-168,-172,-172,-160,-148,-132,-108,-68,-36,-20,-16,-28,-48,-64,-84,-84,-60,-32,-20,-24,-48,-76,-100,-112,-112,-96,-88,-92,-108,-132,-164,-192,-208,-216,-224,-228,-236,-236,-220,-188,-156,-128,-108,-96,-100,-104,-104,-100,-84,-48,-16,-12,-32,-64,-112,-156,-160,-116,-68,-28,-8,-4,-16,-28,-28,-20,-20,-52,-96,-140,-160,-152,-128,-100,-76,-60,-52,-44,-36,-32,-28,-4,36,100,184,272,324,312,224,72,-88,-204,-248,-256,-252,-248,-240,-236,-232,-212,-188,-160,-124,-88,-64,-52,-44,-52,-84,-108,-112,-108,-116,-140,-168,-176,-172,-172,-180,-200,-228,-256,-280,-304,-328,-344,-332,-300,-248,-164,-76,-12,12,12,-12,-60,-116,-180,-232,-256,-244,-204,-148,-84,-28,-4,-4,8,60,144,268,412,556,716,912,1108,1276,1376,1396,1328,1176,932,632,332,76,-128,-288,-396,-464,-496,-484,-436,-380,-328,-272,-236,-240,-264,-272,-264,-252,-212,-144,-72,-24,-20,-52,-104,-160,-192,-192,-160,-104,-36,12,40,40,4,-32,-52,-44,-8,44,100,120,100,68,40,60,128,164,128,64,-8,-100,-184,-236,-232,-188,-124,-68,-32,-12,8,36,68,92,112,132,148,168,196,244,276,264,228,184,152,148,168,192,192,168,120,68,48,56,80,116,160,212,260,284,288,280,252,220,212,224,236,260,304,348,388,424,440,404,328,248,164,104,80,88,108,124,132,132,128,128,144,184,244,308,356,372,348,288,200,108,36,-12,-52,-80,-88,-72,-40,0,32,40,16,-28,-64,-60,-40,-24,-8,4,-8,-40,-68,-104,-148,-188,-208,-192,-128,-56
2026-03-17 15:58:04,-28,-40,-88,-168,-212,-196,-140,-92,-64,-84,-148,-216,-252,-252,-232,-200,-160,-120,-92,-76,-68,-76,-76,-56,-36,-40,-60,-104,-148,-164,-132,-68,4,64,80,56,4,-52,-96,-124,-148,-164,-172,-172,-172,-156,-116,-64,-16,8,20,16,-4,-44,-84,-96,-88,-80,-72,-56,-44,-28,0,12,8,-20,-96,-196,-272,-312,-308,-272,-228,-196,-172,-168,-180,-196,-208,-212,-208,-188,-164,-140,-120,-108,-80,-32,28,92,136,132,80,16,-20,-48,-72,-76,-68,-36,24,72,80,52,8,-40,-92,-132,-152,-156,-152,-140,-116,-88,-64,-48,-36,-28,-16,-8,0,0,0,8,44,92,128,148,160,136,68,-12,-104,-176,-192,-160,-132,-124,-140,-188,-244,-272,-280,-280,-280,-276,-264,-252,-240,-228,-208,-184,-164,-144,-108,-60,-24,0,12,8,-12,-48,-68,-68,-80,-104,-128,-148,-168,-200,-240,-276,-296,-320,-340,-348,-332,-308,-268,-216,-156,-92,-24,60,180,312,436,548,676,848,1064,1268,1416,1488,1448,1288,1032,712,392,116,-108,-296,-444,-544,-588,-588,-556,-504,-440,-376,-324,-276,-228,-192,-172,-164,-168,-176,-196,-204,-196,-176,-148,-128,-116,-92,-64,-40,-32,-28,-16,-4,0,4,0,-8,-16,0,24,44,56,64,72,64,16,-44,-96,-132,-136,-120,-88,-56,-24,4,28,48,60,56,36,28,28,32,36,44,52,56,60,72,80,88,112,152,188,216,228,212,184,156,132,116,112,116,132,156,176,200,228,248,264,284,308,308,292,272,248,224,208,200,188,176,172,176,188,200,208,212,216,216,216,216,212,208,208,208,204,196,188,184,180,172,168,156,140,120,100,80,60,48,32,16,8,0,-4,-8,-16,-28,-44,-56,-64,-72,-80,-92,-92,-100,-112,-120,-120,-112,-108,-104,-104,-104,-104,-100,-108,-112,-116,-116,-112,-108,-104,-100,-96,-88,-84,-80,-80,-84,-88,-92,-88,-84,-76,-64,-60,-64,-72,-76,-80,-84,-88,-92,-84,-72,-68,-68,-64,-64,-64,-60,-56,-52,-56,-56,-52,-48,-48,-48,-48,-52,-60,-60,-64,-64,-64,-64,-68,-68,-72,-76,-80,-84,-80,-80,-80,-88,-92,-88,-84,-84,-84,-88,-88,-88,-92,-100,-108,-112,-116,-116,-112,-104,-104,-104,-100,-92,-88,-84,-76,-68,-60,-60,-56,-56,-52,-40,-32,-24,-12,-8,-8,-8,-4,-4,0,4,4,4,4,4,4,8,16,28,40,44,48,48,40,36,32,32,28,28,24,20,12,0,-12,-28,-44,-60,-76,-84,-92,-100,-100,-104,-108,-112,-116,-120,-120,-128,-132,-136,-136,-132,-124,-124
2026-03-17 15:58:05,-124,-128,-128,-124,-120,-112,-108,-104,-100,-100,-96,-96,-100,-108,-112,-112,-112,-116,-116,-116,-120,-124,-136,-144,-148,-144,-124,-88,-56,-28,0,24,68,140,248,388,528,660,796,964,1152,1320,1448,1508,1476,1336,1088,776,468,188,-44,-224,-348,-420,-440,-420,-380,-328,-272,-220,-180,-144,-108,-84,-64,-48,-36,-28,-20,-16,-16,-16,-16,-16,-16,-16,-16,-8,0,4,8,12,12,16,20,24,32,40,48,56,56,52,48,52,52,52,56,60,64,68,76,80,84,84,84,84,88,100,108,112,120,128,136,144,148,152,156,168,180,192,200,204,208,208,204,204,212,224,232,236,240,248,256,260,264,264,264,268,276,280,284,284,284,288,288,296,304,308,308,312,316,316,312,308,300,292,288,280,272,268,260,252,248,236,224,212,212,208,204,196,184,172,160,144,124,104,96,88,84,80,72,64,52,40,32,20,12,0,-4,-8,-8,-12,-16,-28,-44,-52,-52,-52,-60,-68,-80,-92,-100,-100,-100,-100,-96,-92,-84,-80,-76,-76,-76,-76,-68,-64,-56,-48,-44,-44,-40,-40,-40,-48,-56,-60,-56,-48,-40,-36,-44,-52,-64,-72,-76,-80,-76,-68,-68,-72,-76,-80,-80,-80,-80,-80,-80,-76,-68,-64,-60,-64,-68,-68,-68,-72,-72,-76,-80,-76,-72,-76,-80,-92,-108,-116,-120,-116,-116,-112,-116,-116,-124,-124,-124,-120,-116,-108,-104,-104,-104,-104,-100,-88,-80,-80,-80,-80,-76,-76,-88,-96,-96,-96,-92,-88,-88,-84,-80,-72,-60,-52,-44,-36,-28,-24,-24,-24,-28,-28,-28,-24,-16,0,16,28,28,24,12,0,-12,-24,-32,-40,-48,-56,-68,-88,-104,-120,-128,-136,-144,-152,-160,-160,-160,-160,-164,-160,-152,-148,-144,-144,-144,-144,-148,-156,-160,-164,-168,-172,-172,-164,-152,-148,-148,-152,-164,-172,-180,-180,-176,-172,-176,-172,-168,-160,-156,-156,-156,-172,-184,-188,-180,-164,-140,-120,-104,-84,-60,-24,32,124,252,384,512,644,792,952,1100,1220,1276,1244,1124,908,636,368,128,-72,-236,-352,-420,-456,-468,-444,-404,-364,-328,-304,-288,-268,-232,-196,-164,-140,-116,-96,-72,-60,-52,-48,-52,-52,-56,-52,-48,-40,-32,-28,-28,-32,-28,-28,-24,-20,-12,-12,-8,-4,0,0,0,0,-4,-12,-4,0,16,28,36,40,40,40,36,36,40,48,56,64,64,64,68,68,72,76,84,92,104,112,120,128,136,144,156,164,172,180,188,196,188,176,172,184,200,204,208,212,216,220,228,232,240,244,244,244,248,248,248,252
2026-03-17 15:58:06,252,244,240,236,232,228,220,220,220,224,224,220,220,216,212,208,200,184,160,140,124,112,100,88,76,72,64,52,44,44,40,28,20,8,0,-4,-4,-8,-8,-16,-24,-36,-52,-64,-68,-68,-68,-68,-68,-68,-72,-72,-72,-76,-76,-76,-76,-80,-84,-84,-80,-72,-64,-60,-60,-56,-52,-44,-40,-36,-32,-32,-32,-32,-36,-36,-36,-36,-36,-32,-24,-24,-24,-24,-24,-20,-20,-20,-20,-12,-12,-16,-20,-24,-32,-32,-28,-24,-20,-20,-24,-28,-32,-36,-40,-36,-28,-28,-32,-40,-40,-44,-48,-52,-52,-52,-52,-48,-44,-44,-40,-44,-52,-60,-64,-64,-52,-40,-28,-20,-12,-4,0,4,8,16,16,16,16,20,20,20,20,20,16,20,24,28,32,36,40,44,44,44,44,44,40,36,32,28,20,16,12,0,-16,-24,-32,-44,-52,-56,-64,-80,-92,-104,-112,-112,-112,-112,-112,-112,-112,-116,-120,-124,-128,-124,-120,-116,-112,-108,-104,-108,-116,-120,-128,-128,-124,-116,-112,-108,-108,-112,-116,-124,-128,-132,-136,-140,-152,-160,-160,-156,-144,-124,-104,-80,-60,-40,-4,60,156,280,416,544,672,812,972,1140,1288,1388,1404,1332,1148,880,584,304,52,-140,-284,-384,-444,-472,-468,-440,-400,-352,-308,-276,-244,-212,-184,-160,-132,-108,-96,-84,-72,-64,-60,-56,-52,-52,-52,-48,-44,-44,-44,-36,-36,-36,-44,-44,-40,-36,-28,-24,-20,-20,-16,-16,-16,-20,-16,-8,-4,0,0,0,0,4,8,16,24,28,36,48,56,60,60,68,76,76,80,84,88,88,92,100,108,112,116,124,128,136,140,148,156,160,164,164,168,168,172,180,184,192,196,196,200,200,204,204,208,208,212,216,216,216,208,196,184,184,184,180,176,172,176,176,172,164,152,144,136,124,108,96,84,72,64,60,52,36,24,16,4,-4,-12,-20,-28,-36,-44,-52,-68,-76,-80,-88,-96,-108,-120,-124,-128,-132,-140,-136,-132,-132,-128,-124,-124,-124,-132,-132,-128,-128,-128,-124,-120,-120,-120,-120,-120,-120,-116,-112,-104,-100,-96,-100,-100,-104,-108,-112,-112,-112,-112,-112,-112,-112,-112,-120,-124,-124,-120,-120,-120,-116,-116,-116,-120,-124,-124,-128,-124,-120,-116,-112,-112,-116,-116,-116,-116,-116,-124,-128,-136,-136,-136,-140,-144,-148,-144,-144,-148,-148,-148,-148,-148,-148,-148,-152,-152,-148,-140,-136,-132,-128,-120,-112,-108,-104,-100,-92,-84,-80,-76,-72,-64,-60,-64,-64,-64,-60,-56,-52,-56,-56,-60,-60,-52,-40,-32,-28,-28,-32,-40,-44,-44,-52,-56,-68
2026-03-17 15:58:07,-76,-84,-88,-100,-116,-128,-132,-140,-152,-168,-176,-180,-184,-188,-188,-188,-188,-184,-188,-192,-196,-200,-204,-204,-204,-204,-196,-200,-208,-208,-208,-212,-212,-216,-216,-212,-208,-216,-216,-216,-220,-220,-216,-212,-208,-208,-212,-220,-228,-232,-240,-232,-208,-180,-160,-140,-120,-88,-40,36,152,288,424,556,700,872,1048,1204,1316,1348,1284,1096,808,488,188,-64,-268,-424,-520,-564,-568,-544,-496,-448,-392,-336,-284,-244,-204,-176,-160,-152,-152,-144,-140,-136,-128,-124,-120,-120,-120,-116,-112,-104,-100,-96,-96,-96,-104,-112,-108,-100,-84,-80,-72,-72,-72,-76,-76,-72,-64,-52,-44,-32,-24,-16,-12,-12,-12,-8,-4,0,4,4,4,4,4,4,8,16,24,36,44,56,64,76,84,88,92,92,92,96,104,116,124,132,144,148,152,148,148,160,172,188,204,224,236,232,228,216,200,192,188,188,192,196,200,204,200,196,192,184,180,176,176,176,172,164,156,148,144,144,148,144,136,124,108,96,80,60,36,20,12,4,0,-12,-24,-36,-48,-60,-68,-76,-80,-88,-92,-96,-96,-100,-112,-124,-136,-148,-148,-148,-144,-144,-144,-148,-152,-156,-156,-152,-152,-152,-148,-148,-144,-140,-136,-132,-132,-128,-124,-124,-128,-128,-124,-124,-124,-128,-124,-120,-116,-116,-112,-104,-100,-100,-104,-112,-120,-124,-120,-112,-108,-108,-108,-108,-116,-116,-120,-116,-108,-104,-100,-96,-96,-108,-116,-120,-120,-116,-112,-108,-108,-116,-116,-116,-120,-128,-140,-152,-156,-160,-164,-160,-160,-160,-160,-160,-156,-152,-144,-132,-124,-116,-108,-108,-100,-100,-104,-108,-104,-96,-84,-72,-64,-60,-60,-60,-60,-60,-60,-56,-48,-40,-44,-44,-44,-44,-44,-36,-20,-12,-12,-12,-16,-24,-32,-36,-40,-40,-40,-40,-40,-48,-60,-80,-104,-124,-140,-152,-164,-168,-168,-168,-172,-176,-180,-180,-180,-180,-180,-180,-180,-176,-184,-192,-200,-212,-224,-232,-228,-220,-212,-204,-192,-192,-196,-196,-200,-204,-208,-204,-204,-208,-216,-224,-224,-220,-220,-224,-228,-224,-216,-204,-184,-160,-132,-108,-88,-56,4,108,240,376,496,620,760,916,1064,1180,1232,1184,1032,784,488,204,-40,-248,-408,-520,-576,-584,-556,-508,-456,-396,-340,-296,-256,-220,-188,-164,-144,-132,-128,-128,-128,-124,-128,-132,-132,-124,-116,-108,-96,-92,-92,-92,-92,-92,-92,-88,-84,-76,-72,-64,-56,-48,-44,-48,-48,-48,-44,-40,-32,-24,-20,-16,-12,-12,-12,-8,0,4,12,16,24,32,36,40,48,56,60,64,72,76,80,84,84,88,88,88,92,108,120,128,136,144
2026-03-17 15:58:08,152,160,168,168,168,172,176,180,188,192,200,204,208,204,204,204,200,200,208,208,204,196,184,176,172,176,180,184,184,184,176,164,156,148,136,132,124,120,116,108,92,80,68,56,48,40,32,20,8,0,-16,-32,-52,-68,-76,-80,-80,-84,-88,-92,-96,-100,-104,-108,-116,-120,-124,-128,-124,-124,-128,-132,-136,-144,-144,-140,-132,-128,-124,-124,-128,-128,-128,-132,-132,-124,-116,-112,-104,-96,-96,-100,-104,-108,-112,-112,-108,-108,-108,-108,-108,-116,-116,-120,-116,-116,-116,-108,-100,-96,-100,-104,-108,-116,-116,-116,-116,-116,-116,-116,-128,-136,-140,-136,-132,-124,-120,-116,-120,-132,-144,-156,-164,-164,-156,-148,-144,-140,-144,-144,-148,-156,-156,-156,-152,-148,-144,-140,-140,-140,-144,-144,-140,-136,-132,-132,-128,-120,-112,-100,-96,-96,-100,-96,-88,-80,-76,-72,-68,-60,-56,-52,-56,-68,-72,-68,-60,-52,-48,-48,-56,-72,-84,-84,-76,-68,-60,-56,-64,-80,-96,-112,-124,-132,-144,-152,-164,-172,-180,-184,-188,-192,-196,-204,-212,-216,-220,-224,-228,-224,-220,-220,-224,-228,-228,-228,-220,-212,-200,-192,-188,-192,-192,-196,-200,-208,-208,-212,-212,-204,-200,-200,-196,-200,-208,-216,-224,-232,-224,-208,-184,-156,-120,-84,-48,0,76,192,328,460,580,708,864,1024,1160,1260,1300,1256,1100,836,520,216,-36,-236,-392,-500,-556,-576,-560,-516,-452,-384,-312,-252,-212,-176,-148,-124,-104,-96,-92,-84,-76,-68,-60,-52,-48,-48,-40,-36,-36,-44,-48,-48,-40,-32,-24,-16,-8,0,12,20,20,20,24,28,28,28,28,32,36,40,40,44,48,56,64,76,88,100,108,112,116,116,120,124,128,128,136,152,168,184,192,196,200,208,216,216,228,236,240,248,260,264,268,276,280,280,280,284,292,296,296,296,292,288,284,288,300,312,320,328,332,332,324,312,300,296,296,300,296,292,292,288,280,272,260,252,244,236,228,224,216,200,184,176,168,156,144,136,120,108,100,92,76,60,44,32,24,12,0,-4,-4,-12,-20,-20,-16,-12,-8,-8,-12,-16,-12,-12,-16,-20,-28,-36,-36,-36,-36,-28,-20,-12,-12,-12,-12,-4,0,8,16,16,12,8,4,0,0,0,0,0,0,0,4,4,12,12,12,12,16,24,24,24,16,12,8,8,8,4,4,4,4,4,12,24,24,24,24,20,16,12,4,0,0,0,0,0,0,-4,-4,-4,0,0,0,0,-4,-12,-12,-12,-4,0,12,24,32,36,36,40,44,48,56,56
2026-03-17 15:58:09,56,56,52,48,48,52,52,60,68,72,68,68,76,88,92,96,92,88,84,84,88,80,72,68,60,48,36,20,4,-12,-24,-28,-28,-36,-44,-60,-68,-68,-60,-56,-64,-68,-76,-84,-88,-84,-80,-80,-80,-80,-80,-76,-72,-76,-92,-100,-100,-104,-108,-108,-104,-104,-96,-88,-88,-92,-96,-100,-100,-108,-128,-148,-160,-164,-156,-136,-112,-80,-44,-8,36,108,216,356,500,636,768,912,1084,1264,1436,1564,1608,1548,1360,1060,716,388,104,-120,-288,-400,-460,-476,-456,-420,-372,-324,-272,-232,-204,-172,-144,-128,-120,-104,-92,-80,-80,-84,-104,-120,-112,-92,-72,-60,-52,-40,-40,-40,-40,-40,-44,-40,-40,-32,-24,-24,-28,-32,-32,-32,-28,-28,-28,-16,-8,-4,0,8,16,16,12,8,12,24,36,52,68,76,80,84,84,88,96,108,120,128,136,140,140,148,152,148,148,156,164,180,196,200,204,208,212,216,220,224,232,244,252,252,260,268,268,268,268,268,264,264,264,260,248,244,252,248,232,224,220,216,216,220,220,208,196,188,176,168,156,152,152,152,140,124,104,88,72,52,32,16,12,8,0,-8,-16,-28,-36,-40,-44,-52,-56,-64,-76,-80,-84,-84,-88,-96,-104,-112,-116,-116,-116,-112,-108,-108,-104,-96,-88,-88,-88,-96,-108,-124,-140,-144,-124,-104,-88,-76,-68,-64,-60,-60,-64,-76,-84,-92,-96,-100,-96,-88,-80,-72,-68,-80,-96,-112,-124,-132,-128,-120,-108,-100,-104,-108,-104,-96,-84,-76,-72,-80,-92,-108,-112,-112,-108,-108,-108,-104,-96,-92,-84,-72,-64,-68,-76,-92,-108,-112,-104,-104,-108,-104,-100,-100,-112,-120,-120,-120,-104,-84,-72,-68,-68,-68,-68,-68,-72,-68,-60,-60,-68,-80,-76,-64,-52,-48,-56,-68,-76,-64,-48,-40,-36,-36,-44,-52,-56,-60,-72,-92,-120,-144,-164,-180,-192,-196,-200,-204,-208,-208,-212,-216,-224,-236,-244,-244,-244,-244,-240,-240,-248,-260,-272,-280,-280,-276,-268,-264,-256,-252,-252,-256,-264,-272,-272,-272,-264,-252,-240,-240,-248,-256,-260,-272,-288,-296,-300,-300,-284,-256,-220,-188,-148,-112,-64,12,128,276,420,548,668,812,976,1144,1292,1380,1380,1264,1028,716,388,80,-184,-388,-528,-608,-648,-652,-616,-556,-496,-440,-396,-360,-328,-296,-268,-244,-228,-220,-216,-212,-208,-208,-208,-204,-200,-196,-188,-176,-168,-164,-168,-172,-172,-172,-172,-180,-176,-168,-152,-140,-128,-120,-116,-108,-104,-100,-100,-96,-88,-84,-88,-92,-92,-84,-76,-68,-52,-40,-32,-28,-20,-20,-20,-16,-8,-4,0,0
2026-03-17 15:58:10,4,12,16,16,20,24,32,32,36,48,60,72,80,84,92,100,108,116,128,136,144,144,144,148,156,164,160,156,160,172,180,184,180,168,164,172,176,164,152,144,140,128,112,104,88,68,52,60,68,68,64,56,44,36,32,28,16,0,-8,-20,-32,-48,-60,-76,-88,-96,-116,-136,-144,-140,-144,-152,-160,-172,-184,-196,-204,-200,-196,-192,-196,-192,-192,-196,-196,-200,-204,-196,-184,-184,-180,-172,-160,-164,-176,-184,-188,-180,-164,-152,-144,-144,-152,-160,-152,-144,-140,-144,-148,-152,-148,-136,-136,-140,-132,-116,-120,-140,-148,-148,-148,-148,-136,-124,-116,-116,-124,-136,-140,-136,-124,-112,-108,-112,-116,-120,-124,-128,-124,-116,-116,-112,-112,-116,-116,-116,-124,-132,-136,-136,-140,-140,-144,-152,-160,-152,-144,-140,-136,-136,-136,-124,-116,-108,-104,-100,-96,-92,-88,-76,-72,-68,-64,-56,-52,-48,-56,-60,-48,-44,-48,-48,-40,-36,-36,-28,-16,-8,-4,-8,-12,-8,-8,-24,-40,-44,-36,-32,-40,-56,-80,-100,-112,-124,-136,-148,-160,-164,-172,-180,-188,-188,-184,-192,-204,-204,-200,-192,-176,-160,-148,-144,-140,-140,-140,-136,-140,-148,-152,-148,-140,-136,-144,-152,-156,-156,-152,-148,-140,-136,-128,-128,-128,-136,-152,-168,-180,-184,-164,-128,-88,-48,-4,36,96,172,268,392,528,660,804,976,1172,1360,1520,1616,1636,1560,1344,1016,656,324,52,-160,-316,-416,-456,-456,-424,-372,-316,-260,-220,-192,-168,-144,-116,-84,-52,-28,-16,-16,-20,-20,-16,-20,-28,-32,-28,-32,-40,-40,-32,-16,0,4,12,16,28,40,56,68,76,84,88,92,92,92,92,92,92,96,104,108,112,120,124,132,140,152,156,156,156,156,160,164,172,184,196,208,212,216,220,232,240,244,248,256,268,276,276,280,280,276,272,280,296,312,328,332,328,324,328,328,332,340,348,352,356,356,352,356,356,344,332,328,324,320,312,300,296,296,292,276,268,264,256,244,236,224,208,196,184,168,148,132,116,100,84,68,52,40,24,8,-8,-24,-36,-40,-44,-60,-76,-84,-84,-88,-92,-88,-88,-88,-92,-92,-92,-100,-112,-124,-128,-128,-128,-120,-112,-108,-108,-112,-112,-120,-120,-124,-128,-124,-116,-112,-104,-104,-108,-120,-124,-124,-124,-120,-108,-100,-84,-64,-48,-44,-44,-40,-40,-44,-48,-56,-64,-72,-72,-76,-80,-80,-76,-68,-60,-56,-56,-60,-68,-76,-80,-84,-88,-92,-92,-92,-96,-96,-92,-88,-84,-80,-80,-84,-84,-84,-76,-68,-56,-48,-40,-36,-32,-32,-36,-48
2026-03-17 15:58:11,-52,-52,-52,-48,-44,-36,-32,-28,-24,-24,-24,-24,-24,-20,-8,0,4,12,8,0,-12,-16,-20,-28,-36,-36,-44,-60,-72,-92,-108,-116,-128,-140,-148,-152,-156,-164,-172,-176,-180,-176,-180,-180,-180,-180,-180,-176,-168,-160,-152,-148,-148,-152,-148,-148,-156,-172,-184,-196,-200,-200,-200,-204,-212,-212,-216,-216,-212,-208,-204,-196,-184,-184,-188,-196,-196,-180,-160,-140,-116,-80,-36,28,136,284,440,584,724,872,1048,1232,1392,1496,1528,1468,1288,1000,668,352,76,-144,-316,-432,-488,-508,-500,-472,-424,-380,-340,-300,-272,-252,-240,-220,-200,-188,-176,-172,-172,-176,-180,-184,-176,-152,-132,-124,-120,-104,-84,-76,-80,-92,-104,-108,-104,-96,-84,-72,-64,-56,-52,-52,-52,-56,-56,-52,-44,-36,-36,-40,-52,-60,-64,-60,-48,-36,-24,-16,-12,0,0,0,0,-12,-20,-20,-16,-12,0,20,36,48,56,72,88,100,112,120,128,136,136,124,116,112,108,112,116,120,128,144,152,156,164,176,180,172,164,160,156,140,120,112,120,128,140,148,148,144,140,132,116,100,100,100,104,100,84,64,40,16,0,-28,-48,-60,-64,-72,-88,-108,-128,-136,-148,-164,-168,-168,-180,-196,-204,-212,-220,-224,-236,-248,-248,-236,-232,-228,-232,-248,-268,-288,-308,-312,-300,-284,-272,-260,-248,-236,-236,-252,-268,-280,-292,-300,-296,-276,-252,-228,-212,-204,-204,-208,-200,-196,-204,-212,-224,-240,-268,-296,-304,-292,-276,-268,-276,-280,-268,-244,-212,-196,-192,-196,-196,-196,-192,-192,-196,-208,-232,-248,-256,-272,-288,-288,-256,-220,-204,-196,-184,-172,-168,-172,-188,-212,-228,-220,-204,-188,-184,-184,-184,-184,-176,-172,-176,-184,-188,-184,-188,-192,-200,-204,-216,-224,-212,-176,-148,-136,-128,-128,-136,-140,-136,-132,-128,-124,-116,-112,-112,-116,-128,-140,-156,-172,-196,-220,-240,-248,-240,-240,-268,-300,-316,-312,-300,-276,-260,-260,-256,-256,-260,-272,-280,-288,-300,-304,-308,-324,-344,-348,-344,-340,-336,-332,-316,-296,-284,-284,-276,-268,-276,-284,-284,-284,-288,-304,-324,-328,-320,-316,-332,-348,-364,-372,-356,-320,-280,-252,-236,-208,-152,-40,112,272,424,572,716,872,1036,1188,1284,1292,1200,1000,724,420,140,-116,-328,-488,-596,-652,-672,-664,-656,-640,-600,-560,-524,-488,-448,-404,-360,-336,-340,-364,-392,-416,-412,-360,-296,-240,-196,-168,-164,-164,-172,-192,-212,-232,-244,-248,-244,-228,-228,-232,-216,-192,-196,-256,-332,-360,-364,-368,-344,-296,-244,-188,-132,-84,-64,-76,-104,-144,-180,-196,-200,-196,-188,-180,-164,-128,-84,-64,-72,-104,-148,-180
2026-03-17 15:58:12,-172,-132,-92,-60,-32,-8,0,0,-16,-52,-64,-72,-92,-112,-92,-52,-32,-28,-40,-72,-112,-120,-108,-100,-100,-108,-104,-64,-24,0,12,8,0,-12,-12,-16,-20,-20,-4,8,4,-8,-36,-52,-68,-100,-152,-204,-248,-288,-304,-276,-228,-216,-232,-240,-228,-224,-244,-260,-272,-300,-336,-384,-424,-424,-380,-296,-216,-176,-164,-184,-228,-276,-308,-316,-312,-300,-288,-284,-276,-264,-272,-316,-360,-384,-400,-420,-432,-416,-380,-348,-324,-308,-328,-408,-540,-668,-724,-660,-524,-388,-284,-184,-108,-76,-76,-76,-88,-128,-172,-212,-256,-276,-276,-272,-264,-256,-252,-252,-260,-276,-332,-396,-420,-408,-392,-360,-328,-324,-316,-312,-356,-428,-508,-544,-516,-460,-412,-364,-328,-308,-268,-240,-252,-288,-304,-324,-328,-312,-292,-276,-268,-268,-280,-304,-332,-360,-392,-436,-508,-568,-552,-468,-408,-364,-304,-252,-260,-344,-456,-536,-600,-652,-624,-488,-344,-256,-192,-164,-160,-164,-192,-252,-324,-400,-436,-412,-380,-372,-368,-360,-372,-388,-396,-420,-460,-468,-484,-524,-552,-572,-636,-716,-728,-692,-696,-736,-732,-648,-532,-456,-412,-380,-368,-408,-504,-612,-656,-604,-520,-476,-452,-444,-460,-504,-588,-656,-660,-628,-624,-644,-620,-556,-504,-480,-480,-516,-548,-576,-656,-744,-776,-756,-712,-632,-528,-416,-336,-296,-256,-184,-96,12,116,216,368,588,784,908,980,1016,956,764,496,220,-48,-312,-528,-672,-748,-800,-864,-884,-820,-740,-688,-620,-548,-540,-576,-588,-600,-628,-636,-616,-568,-496,-424,-348,-288,-300,-332,-380,-460,-528,-536,-488,-408,-356,-344,-316,-284,-272,-304,-336,-304,-224,-156,-128,-136,-160,-172,-196,-304,-456,-540,-524,-460,-392,-328,-228,-104,-36,-72,-188,-308,-428,-548,-568,-468,-364,-312,-276,-232,-212,-252,-308,-324,-296,-268,-244,-188,-84,0,20,64,124,112,56,12,-12,-40,-64,-88,-140,-224,-300,-328,-344,-356,-312,-232,-188,-188,-172,-152,-184,-356,-616,-776,-680,-416,-148,36,172,272,328,324,252,144,44,-16,-36,-68,-152,-268,-320,-272,-192,-132,-104,-116,-160,-216,-256,-284,-360,-468,-492,-460,-492,-560,-596,-604,-540,-384,-248,-252,-456,-700,-784,-724,-612,-492,-396,-280,-148,-88,-104,-140,-164,-184,-184,-168,-168,-180,-192,-216,-252,-288,-316,-332,-360,-432,-532,-632,-704,-756,-792,-748,-628,-572,-644,-740,-728,-600,-432,-284,-164,-56,-8,-64,-148,-164,-132,-100,-80,-52,-8,16,8,-8,-16,0,40,72,28,-80,-192,-280,-352,-444,-532,-568,-600,-684,-764,-792,-768,-676,-496,-296,-208,-260,-360,-384,-304,-152,20,148,212,228,228,248,308,352,316,220,144
2026-03-17 15:58:13,112,92,44,-20,-84,-140,-152,-160,-260,-408,-580,-760,-788,-572,-272,-96,-56,-136,-340,-584,-720,-616,-276,108,368,496,584,616,556,492,520,540,388,92,-180,-336,-396,-344,-124,204,480,576,472,184,-120,-328,-456,-436,-256,-60,84,176,140,-12,-184,-280,-312,-292,-176,12,180,228,124,8,0,8,-44,-144,-252,-308,-304,-268,-188,-44,112,200,172,88,8,-52,-52,60,204,268,236,112,-40,-132,-180,-240,-276,-268,-196,-48,104,196,180,148,264,464,548,580,736,1036,1344,1552,1696,1784,1784,1716,1576,1296,880,480,200,32,-80,-204,-368,-516,-544,-440,-292,-192,-184,-208,-212,-236,-356,-528,-576,-408,-108,108,196,272,376,420,280,-48,-420,-624,-600,-372,-64,180,352,444,460,452,452,404,344,316,272,216,216,236,232,228,220,180,124,72,12,-28,-28,-20,-32,12,184,380,448,376,224,88,20,0,4,56,100,60,12,36,144,328,528,684,760,760,700,628,560,480,404,364,380,408,420,408,372,352,368,380,336,276,268,340,448,540,608,652,616,552,576,664,700,656,564,484,452,444,440,452,504,568,572,508,452,448,476,448,360,304,312,304,232,164,196,312,444,536,516,324,28,-160,-152,-36,108,268,392,480,532,544,532,504,468,436,404,364,332,308,280,244,224,216,212,208,196,180,152,104,32,-48,-100,-76,36,172,200,88,-56,-116,-48,88,244,372,460,504,520,512,484,456,428,396,372,356,344,332,320,308,300,300,300,296,296,276,208,80,-60,-140,-88,44,172,256,300,336,364,384,396,388,364,344,340,340,344,356,368,364,300,176,60,24,64,140,220,300,364,416,448,452,432,380,280,184,156,168,196,260,332,388,420,436,448,448,416,364,340,372,440,496,524,520,500,472,444,424,404,392,376,376,392,404,408,408,412,380,264,92,-16,-12,76,192,300,388,444,480,512,532,516,448,336,240,220,264,308,320,328,348,380,404,412,400,372,340,304,268,240,228,216,220,248,300,344,344,308,264,216,168,80,-96,-320,-468,-460,-296,-24,304,632,908,1112,1240,1324,1384,1416,1416,1392,1332,1256,1176,1112,1100,1164,1292,1436,1552,1604,1564,1404,1152,872,600,336,108,-52,-168,-300,-460,-592,-684,-724,-624,-328,64,400,640,824,968,1064,1080,1004,860,680,496,328,196,124,116,144,176,208,240,268,276,276,264,248,244,228,144,-4,-116,-128,-56,68,224,388,548,676,744,760,744
2026-03-17 15:58:14,680,572,468,412,384,384,432,500,560,592,604,608,596,564,520,472,424,404,424,452,480,480,464,452,436,384,260,124,68,108,188,256,336,468,640,776,812,716,460,156,-12,36,228,460,668,840,972,1052,1068,1036,968,884,792,708,636,584,564,564,572,568,540,484,432,396,304,140,0,-36,32,188,352,464,528,552,528,440,348,304,304,332,372,436,504,556,576,564,536,512,488,468,452,416,360,288,212,144,120,144,184,204,196,124,-24,-212,-368,-440,-352,-128,120,328,460,524,536,496,412,296,188,136,172,272,372,424,444,436,400,352,304,268,244,232,212,176,128,88,80,96,116,120,104,72,12,-92,-212,-240,-176,-68,40,136,232,324,364,356,324,280,244,236,252,280,300,292,264,220,164,124,108,112,120,128,136,144,144,136,124,108,108,124,156,200,248,276,248,160,72,36,36,52,76,112,152,192,216,216,208,204,208,204,192,180,172,164,168,172,156,128,104,84,72,64,48,4,-108,-256,-352,-344,-268,-172,-80,12,92,144,156,140,104,64,28,-12,-48,-64,-60,-48,-36,-24,-16,-12,-12,-20,-28,-32,-32,-32,-32,-36,-48,-56,-68,-80,-88,-88,-96,-112,-156,-228,-304,-344,-304,-216,-116,-32,36,104,176,244,304,372,452,552,688,864,1056,1244,1388,1452,1428,1320,1112,832,540,264,24,-160,-300,-412,-492,-544,-572,-564,-528,-488,-444,-396,-340,-296,-272,-268,-268,-268,-264,-252,-240,-224,-204,-196,-180,-152,-124,-108,-100,-96,-100,-100,-100,-104,-120,-152,-192,-212,-200,-172,-136,-108,-100,-100,-104,-108,-120,-136,-152,-168,-176,-168,-156,-164,-168,-160,-140,-108,-68,-44,-32,-24,-12,-8,-8,-20,-56,-92,-100,-84,-64,-44,-32,-24,-20,-16,-12,-16,-20,-20,-20,-20,-24,-32,-40,-32,-16,-8,-4,0,8,12,12,12,8,8,4,0,0,0,4,4,4,-4,-20,-28,-32,-36,-44,-52,-60,-72,-84,-96,-100,-92,-84,-88,-100,-108,-120,-148,-192,-232,-248,-240,-236,-236,-244,-252,-260,-256,-252,-248,-252,-264,-280,-296,-308,-324,-336,-336,-328,-320,-324,-336,-352,-360,-368,-372,-380,-380,-372,-364,-364,-360,-356,-348,-340,-332,-324,-320,-312,-308,-312,-316,-320,-328,-340,-352,-356,-352,-340,-320,-300,-276,-264,-272,-288,-288,-280,-280,-288,-300,-308,-304,-292,-284,-276,-268,-256,-252,-248,-252,-264,-268,-284,-312,-336,-340,-344,-348,-348,-352,-344,-332,-324,-324,-324,-316,-312,-308,-312,-312,-316,-320,-324,-332,-340,-340,-340,-340
2026-03-17 15:58:15,-336,-336,-344,-344,-332,-308,-288,-280,-288,-296,-304,-308,-304,-292,-280,-268,-260,-256,-260,-260,-252,-252,-256,-260,-264,-272,-272,-268,-264,-260,-252,-256,-264,-272,-280,-292,-308,-328,-348,-360,-372,-384,-396,-404,-404,-400,-396,-396,-396,-400,-400,-396,-400,-404,-404,-408,-412,-416,-420,-416,-408,-408,-404,-396,-392,-388,-380,-364,-356,-356,-352,-348,-344,-332,-332,-332,-332,-332,-340,-360,-376,-384,-380,-352,-308,-260,-212,-164,-116,-60,28,144,272,408,536,664,812,972,1124,1236,1280,1244,1128,908,616,324,56,-172,-368,-516,-620,-676,-696,-680,-644,-592,-528,-460,-400,-364,-336,-308,-272,-244,-220,-204,-192,-180,-176,-176,-172,-168,-164,-156,-148,-144,-136,-128,-120,-108,-100,-88,-72,-60,-52,-44,-32,-20,-20,-20,-24,-28,-36,-36,-36,-36,-36,-36,-36,-32,-28,-24,-16,-8,-4,0,12,24,32,40,48,56,56,64,68,72,84,104,124,132,136,136,136,140,144,148,156,164,164,168,180,192,204,216,232,244,256,264,272,280,288,292,300,312,324,332,336,336,340,344,344,340,340,344,344,340,336,336,332,328,324,320,312,304,296,284,276,264,248,232,224,208,192,184,168,148,136,120,108,96,88,76,64,52,44,36,36,36,36,28,24,16,16,16,16,20,32,40,40,32,24,20,16,16,20,24,32,40,44,44,44,48,52,60,64,72,80,80,72,64,60,56,56,64,72,80,92,96,96,96,96,96,92,88,88,84,84,84,92,100,112,120,128,136,140,140,140,136,136,136,132,128,124,124,128,132,136,140,144,144,144,144,148,148,156,156,160,160,164,172,180,184,192,200,208,208,208,200,196,200,212,220,228,228,224,224,232,236,240,256,276,292,312,324,336,336,328,320,308,292,280,268,264,260,256,244,232,204,172,148,132,120,104,76,28,-16,-44,-40,-20,-12,-16,-28,-40,-40,-12,24,80,140,180,196,192,152,48,-96,-216,-252,-204,-112,-20,64,144,216,276,304,304,288,268,236,204,176,152,132,120,132,152,180,208,236,264,308,384,500,636,768,880,992,1128,1284,1436,1552,1592,1552,1428,1204,916,620,344,108,-72,-212,-312,-372,-392,-376,-336,-284,-224,-172,-140,-112,-88,-68,-44,-16,0,12,24,40,44,48,60,68,76,88,92,84,72,68,76,92,84,44,20,36,88,144,192,220,236,244,252,248,240,232,220,208,204,208,212,220,224,228,240,252,256,240,212,176,152,156
2026-03-17 15:58:16,180,224,264,284,304,328,348,356,348,332,324,332,352,376,396,408,412,408,400,400,404,412,420,428,436,440,448,456,452,444,444,440,440,444,448,444,444,440,432,428,428,424,424,424,424,420,420,420,408,396,384,376,372,372,368,360,356,348,332,308,288,272,264,260,256,244,236,236,228,216,204,192,184,172,164,156,156,152,148,140,132,124,124,132,132,132,128,128,120,120,120,120,120,128,132,136,140,140,136,132,132,132,128,132,140,148,152,156,160,160,164,168,172,180,184,192,196,200,200,204,208,212,216,220,224,228,232,236,232,228,224,224,224,228,228,232,236,240,240,236,232,232,236,240,244,248,244,244,240,240,244,244,248,260,272,280,288,296,304,308,316,328,340,352,360,368,364,360,352,348,348,356,368,372,380,384,388,384,380,380,388,404,412,416,420,420,420,416,412,404,400,388,380,368,360,348,332,316,300,292,284,272,268,268,264,260,260,252,248,240,236,236,236,240,244,248,252,252,248,244,244,240,240,244,244,244,244,240,240,240,244,244,248,252,256,260,264,260,248,240,232,232,240,264,296,336,380,420,460,516,596,708,848,992,1120,1248,1396,1560,1712,1828,1884,1856,1732,1496,1188,876,600,368,172,24,-64,-112,-120,-92,-48,0,56,112,156,192,228,264,296,324,340,352,360,368,372,372,372,368,372,376,384,392,396,392,388,388,388,388,396,404,416,428,436,444,444,444,444,448,448,456,464,468,472,476,476,476,480,484,484,492,500,512,516,520,520,516,516,520,524,532,536,540,544,552,556,560,564,568,576,584,588,592,600,604,608,608,616,620,628,640,652,664,676,676,676,676,680,684,688,696,704,712,716,716,712,700,688,676,664,664,664,664,660,652,640,628,620,608,600,596,588,576,564,548,532,508,484,460,440,424,412,396,384,368,348,332,316,304,292,284,276,272,268,264,252,240,232,224,220,220,220,220,220,216,208,204,200,200,200,204,204,208,212,212,212,212,208,208,208,216,220,220,224,228,224,224,224,224,224,228,228,232,240,240,236,232,228,224,220,224,228,228,228,228,220,216,212,208,212,212,212,212,212,212,208,204,200,192,192,188,192,196,200,200,200,200,200,196,200,200,196,196,196,204,208,220,228,236,240,248,264,276,280,280,276,272
2026-03-17 15:58:17,264,256,252,248,244,240,244,248,260,268,272,272,268,264,256,248,236,216,192,176,164,156,148,132,120,112,104,96,88,76,60,52,48,48,60,88,124,156,176,180,196,232,268,284,264,224,176,120,52,-4,-52,-72,-72,-72,-76,-80,-84,-88,-92,-96,-96,-92,-80,-68,-56,-48,-48,-40,-28,0,48,120,208,292,352,384,416,460,536,632,732,820,924,1068,1232,1388,1512,1580,1564,1440,1204,892,580,300,56,-140,-292,-392,-444,-460,-448,-412,-360,-304,-244,-188,-140,-96,-60,-28,0,12,24,32,36,36,40,48,52,56,60,64,68,72,76,80,92,96,100,112,128,136,140,136,128,116,104,88,76,72,80,88,100,120,136,160,192,228,256,284,300,300,284,252,212,172,148,140,152,176,196,200,192,176,156,136,120,120,132,152,180,208,228,240,244,244,240,236,232,236,244,248,260,276,288,300,308,312,312,320,328,340,356,392,452,516,576,608,604,572,512,440,380,328,276,232,200,176,156,148,140,132,124,116,116,112,108,100,88,76,64,64,76,84,92,100,108,100,88,80,76,68,52,24,-8,-44,-84,-120,-144,-140,-112,-72,-32,-4,4,0,-16,-52,-100,-144,-180,-204,-204,-192,-176,-160,-152,-156,-160,-160,-160,-164,-156,-144,-132,-120,-108,-96,-84,-76,-76,-76,-80,-84,-88,-88,-84,-80,-76,-76,-80,-100,-108,-104,-92,-76,-60,-56,-52,-48,-36,-16,4,24,40,48,40,12,-12,-40,-72,-100,-116,-120,-124,-116,-108,-100,-88,-80,-72,-60,-44,-28,-20,-16,-12,-8,-8,-8,-8,-8,-8,0,0,4,4,4,0,0,0,0,8,20,20,24,36,56,92,144,208,252,264,244,192,112,12,-92,-192,-260,-300,-324,-328,-324,-312,-300,-284,-268,-260,-256,-252,-248,-236,-220,-208,-192,-188,-188,-192,-192,-192,-200,-208,-204,-192,-184,-176,-172,-176,-176,-180,-188,-188,-188,-188,-188,-188,-188,-188,-192,-192,-196,-200,-196,-176,-148,-108,-68,-24,16,76,160,280,428,568,692,824,980,1160,1344,1496,1576,1560,1432,1176,840,492,164,-120,-364,-560,-696,-764,-776,-748,-692,-624,-556,-500,-452,-404,-356,-308,-260,-224,-196,-176,-160,-152,-148,-144,-140,-136,-128,-116,-104,-96,-88,-76,-56,-20,20,84,140,168,160,124,56,-32,-120,-192,-236,-256,-256,-244,-220,-188,-164,-148,-140,-136,-128,-116,-104,-92,-76,-52,-24,-4,16,32,36,44,56,76,92,120,144,160,164,144,104,56,8,-32,-64,-80,-88,-84,-68
2026-03-17 15:58:18,-56,-48,-40,-24,-4,20,48,72,92,120,148,176,204,232,248,260,264,260,256,260,264,252,224,176,116,52,-4,-52,-80,-92,-100,-108,-112,-108,-104,-100,-100,-108,-112,-120,-132,-148,-164,-168,-160,-124,-60,0,24,24,12,16,32,36,28,0,-68,-176,-304,-436,-548,-640,-692,-704,-696,-680,-652,-620,-592,-572,-556,-540,-528,-512,-504,-492,-480,-476,-472,-468,-464,-448,-428,-408,-392,-372,-352,-340,-336,-324,-292,-236,-168,-128,-136,-188,-276,-380,-476,-548,-596,-620,-616,-604,-592,-580,-568,-548,-532,-516,-504,-500,-504,-508,-512,-504,-480,-452,-424,-396,-356,-312,-264,-220,-188,-172,-168,-172,-196,-244,-312,-392,-476,-552,-612,-640,-640,-620,-596,-576,-564,-560,-552,-536,-524,-512,-500,-488,-488,-480,-472,-464,-452,-440,-424,-404,-380,-356,-336,-308,-292,-288,-252,-172,-64,36,72,0,-156,-368,-588,-776,-900,-968,-980,-948,-900,-856,-824,-792,-760,-740,-724,-712,-704,-696,-688,-680,-668,-656,-644,-636,-636,-644,-652,-656,-652,-648,-648,-644,-640,-632,-628,-624,-616,-616,-620,-620,-616,-608,-604,-608,-616,-624,-624,-612,-584,-548,-512,-476,-444,-404,-352,-268,-152,-20,104,240,400,588,772,916,988,968,856,632,336,44,-212,-440,-640,-812,-944,-1036,-1080,-1080,-1036,-976,-908,-832,-768,-724,-692,-672,-656,-648,-640,-624,-612,-596,-588,-592,-600,-592,-568,-540,-500,-448,-396,-352,-308,-272,-264,-292,-348,-416,-476,-536,-580,-612,-636,-648,-636,-612,-588,-564,-544,-524,-504,-484,-464,-452,-440,-436,-436,-424,-412,-396,-380,-360,-348,-336,-324,-316,-308,-276,-228,-180,-152,-144,-168,-212,-256,-292,-308,-292,-260,-236,-216,-204,-208,-220,-232,-236,-240,-232,-216,-192,-160,-124,-96,-88,-92,-100,-108,-116,-124,-124,-108,-80,-48,-20,4,24,28,8,-20,-60,-100,-132,-160,-176,-180,-176,-172,-172,-164,-160,-160,-168,-184,-208,-232,-244,-252,-256,-248,-240,-236,-236,-244,-256,-272,-288,-308,-324,-336,-348,-360,-376,-404,-432,-460,-484,-500,-504,-504,-508,-508,-504,-500,-496,-492,-484,-472,-460,-448,-436,-424,-412,-404,-396,-392,-380,-368,-352,-344,-336,-324,-312,-304,-300,-308,-320,-340,-352,-360,-368,-372,-368,-364,-364,-360,-360,-360,-356,-348,-340,-332,-324,-316,-316,-316,-316,-324,-324,-320,-316,-308,-304,-300,-296,-300,-304,-308,-308,-304,-300,-300,-300,-304,-312,-316,-320,-320,-316,-312,-308,-300,-288,-272,-264,-256,-248,-244,-240,-232,-228,-224,-216,-208,-204,-200,-200,-200,-196,-188,-184,-180,-176,-176,-176,-172,-168,-160,-152,-144,-144,-148,-148,-156,-164,-168,-176,-184,-188,-196,-204,-208,-216
2026-03-17 15:58:19,-232,-244,-256,-264,-272,-280,-284,-292,-296,-296,-296,-296,-292,-296,-300,-308,-312,-316,-316,-312,-312,-312,-312,-308,-308,-304,-300,-296,-292,-292,-288,-288,-284,-284,-288,-288,-288,-288,-288,-280,-280,-284,-292,-296,-304,-300,-288,-264,-228,-180,-128,-76,-20,44,144,272,420,564,692,836,1004,1192,1360,1488,1540,1504,1360,1088,744,404,100,-156,-372,-528,-620,-660,-660,-632,-580,-516,-456,-400,-352,-312,-280,-248,-220,-196,-176,-160,-148,-144,-140,-140,-144,-144,-144,-140,-132,-120,-100,-84,-72,-72,-80,-84,-80,-76,-68,-56,-48,-44,-40,-32,-32,-32,-28,-24,-16,-8,0,8,12,16,16,16,20,28,40,52,60,64,68,72,72,76,84,92,104,116,124,132,140,140,140,144,148,156,168,180,192,196,204,212,212,212,220,232,240,256,268,276,284,288,292,292,296,296,304,312,312,312,312,312,304,296,296,296,296,304,304,296,296,288,276,264,256,248,248,244,236,220,204,188,164,140,120,104,92,88,76,56,40,24,12,4,0,-8,-16,-20,-24,-28,-36,-48,-64,-72,-76,-76,-76,-72,-68,-68,-72,-76,-80,-84,-84,-76,-72,-64,-56,-52,-48,-52,-56,-60,-60,-60,-56,-52,-48,-48,-48,-48,-48,-48,-48,-48,-48,-44,-44,-40,-36,-32,-36,-40,-40,-36,-36,-28,-24,-24,-24,-24,-28,-32,-32,-32,-32,-28,-24,-24,-24,-28,-32,-36,-36,-36,-36,-36,-32,-32,-32,-32,-32,-32,-28,-28,-28,-28,-24,-24,-24,-28,-28,-24,-20,-16,-8,0,16,24,28,28,32,36,40,40,44,52,52,56,60,64,56,52,52,48,44,48,56,64,72,76,72,72,68,64,64,68,64,52,44,36,28,16,4,-8,-20,-28,-40,-44,-44,-44,-52,-60,-60,-60,-60,-60,-64,-68,-68,-64,-68,-68,-64,-64,-60,-56,-52,-56,-56,-56,-60,-60,-64,-68,-68,-68,-68,-68,-68,-68,-68,-68,-68,-72,-76,-80,-84,-88,-80,-60,-32,0,36,80,128,184,264,380,524,676,816,952,1112,1296,1476,1620,1704,1704,1592,1348,1008,652,344,84,-132,-300,-408,-464,-476,-456,-412,-356,-292,-236,-184,-136,-96,-60,-32,-12,0,12,24,28,36,40,44,44,48,52,60,68,76,84,84,88,88,88,92,100,104,112,120,124,124,132,136,140,148,152,156,164,172,180,184,192,192,196,204,208,216,224,232,240,244,252,252,252,256,260,268,276,288,296,304,312,316,324,332,336,340,352,360,368,372,380,384,392,404,416,424,436,448,448,444,444
2026-03-17 15:58:20,444,448,452,452,456,464,468,468,468,468,460,456,456,456,456,452,448,440,432,428,420,412,408,400,388,376,364,352,336,320,300,280,264,248,228,212,196,176,160,148,132,120,108,96,84,72,64,60,56,48,40,36,36,32,32,32,32,28,24,20,16,16,12,12,12,12,16,16,20,24,32,36,40,36,36,36,36,32,32,36,36,36,40,40,44,44,48,52,56,56,52,48,48,44,44,48,48,48,44,44,40,40,36,32,32,32,32,32,28,28,24,24,24,20,20,20,24,20,16,12,8,8,8,4,0,0,0,0,0,0,0,0,0,0,0,0,0,0,0,0,0,4,8,8,4,4,0,0,4,4,8,12,20,28,36,44,52,56,60,60,60,60,68,76,80,84,88,88,84,84,88,96,112,128,136,132,120,100,84,64,52,44,36,28,16,8,0,-12,-20,-24,-32,-40,-44,-52,-56,-60,-68,-76,-76,-76,-76,-76,-72,-64,-60,-48,-48,-52,-60,-68,-76,-84,-88,-92,-96,-96,-96,-100,-100,-92,-88,-88,-84,-88,-92,-92,-92,-92,-96,-104,-112,-120,-120,-120,-104,-72,-36,-4,36,80,128,200,304,440,592,728,856,1000,1172,1352,1504,1596,1608,1520,1312,1000,648,328,56,-172,-352,-476,-544,-568,-556,-512,-456,-400,-336,-280,-240,-204,-172,-140,-112,-92,-80,-72,-64,-64,-68,-68,-60,-52,-48,-44,-44,-40,-36,-36,-36,-36,-36,-36,-32,-24,-16,-8,-4,0,-4,-8,-8,-4,0,12,24,28,28,32,28,28,32,40,44,52,64,68,72,72,72,72,84,92,96,104,108,112,120,124,124,128,132,132,140,148,160,168,180,188,196,204,216,224,232,240,248,252,256,260,264,268,272,276,280,284,284,288,292,292,292,296,296,292,288,292,296,296,292,288,284,276,264,248,240,236,228,212,196,184,164,140,124,100,76,56,40,24,8,-8,-24,-40,-56,-68,-76,-80,-84,-96,-104,-112,-120,-124,-132,-144,-152,-148,-148,-148,-152,-156,-160,-168,-168,-172,-168,-164,-164,-160,-160,-160,-168,-164,-164,-164,-164,-156,-152,-148,-140,-128,-124,-124,-128,-132,-140,-140,-136,-132,-128,-128,-128,-132,-132,-132,-132,-132,-124,-120,-120,-120,-124,-132,-136,-140,-136,-132,-132,-140,-140,-136,-136,-140,-140,-140,-140,-144,-148,-148,-148,-152,-160,-164,-172,-176,-180,-176,-172,-172,-172,-172,-176,-180,-180,-180,-180,-176,-176,-176,-172,-172,-176,-176,-172,-172,-168,-168,-168,-172,-172,-172
2026-03-17 15:58:21,-172,-172,-168,-172,-168,-164,-156,-148,-140,-140,-140,-132,-124,-116,-108,-100,-96,-96,-92,-88,-88,-80,-76,-72,-68,-64,-64,-64,-72,-76,-76,-72,-60,-52,-44,-40,-44,-48,-56,-64,-72,-80,-88,-92,-100,-104,-116,-128,-140,-144,-156,-168,-176,-184,-192,-196,-196,-196,-196,-200,-208,-212,-216,-216,-212,-212,-212,-212,-212,-216,-216,-212,-208,-208,-208,-204,-204,-204,-200,-196,-196,-204,-208,-208,-208,-200,-196,-196,-200,-208,-224,-228,-228,-224,-200,-156,-104,-52,0,48,120,228,372,528,676,808,956,1132,1328,1512,1640,1696,1668,1524,1244,888,532,208,-76,-312,-480,-572,-612,-612,-584,-536,-480,-420,-364,-320,-288,-264,-240,-212,-184,-160,-144,-136,-132,-128,-128,-128,-124,-120,-116,-104,-92,-88,-88,-88,-84,-80,-76,-76,-76,-72,-68,-56,-48,-44,-44,-52,-56,-52,-40,-24,-12,-4,0,0,0,0,0,0,12,24,32,36,36,36,40,48,56,60,72,84,92,100,112,120,132,156,180,200,228,268,300,328,356,376,380,384,388,396,404,416,424,440,452,460,460,460,464,472,488,496,500,500,500,504,504,504,508,512,512,508,504,492,476,468,456,448,440,428,412,396,376,356,340,316,296,272,256,236,220,204,188,172,156,136,116,96,84,72,64,48,32,20,20,20,12,8,4,0,-4,-8,-12,-24,-32,-36,-36,-32,-28,-20,-16,-12,-12,-20,-20,-12,-8,-8,-4,0,0,4,4,4,4,4,0,0,0,8,16,24,24,16,12,12,12,12,16,24,28,28,28,28,24,20,12,8,8,12,24,44,56,64,64,52,32,12,0,-8,-12,-8,-16,-32,-40,-44,-48,-52,-52,-52,-44,-32,-24,-24,-24,-32,-48,-56,-56,-56,-56,-52,-52,-48,-44,-40,-48,-52,-52,-44,-36,-28,-20,-12,-4,0,20,40,68,92,112,128,144,176,216,236,232,204,164,108,44,-12,-60,-84,-84,-80,-72,-64,-56,-56,-56,-56,-52,-48,-48,-52,-64,-68,-76,-84,-96,-104,-108,-116,-124,-124,-128,-132,-136,-140,-144,-144,-144,-144,-140,-136,-128,-120,-112,-116,-120,-120,-124,-124,-124,-116,-116,-116,-116,-116,-100,-72,-28,24,80,120,124,100,48,-24,-108,-188,-256,-304,-328,-332,-324,-296,-252,-200,-140,-72,-4,68,164,292,448,612,756,900,1072,1276,1484,1664,1784,1824,1768,1568,1240,856,496,176,-104,-328,-472,-544,-572,-552,-500,-444,-376,-316,-268,-228,-196,-172,-148,-128,-116,-100,-68,-28,8,36,48,40,16,-12,-32,-48,-64,-76,-92,-108,-116,-120
2026-03-17 15:58:22,-116,-108,-96,-80,-64,-44,-40,-40,-40,-44,-40,-28,-8,8,28,52,80,128,180,220,264,308,344,360,340,288,192,84,-4,-72,-112,-128,-120,-104,-76,-48,-20,0,20,32,44,56,72,96,116,136,152,164,172,184,192,208,224,236,248,260,268,268,272,272,280,292,304,308,312,316,316,312,312,304,300,300,304,308,312,316,312,304,292,276,256,244,232,224,212,200,180,160,136,108,80,56,40,24,12,0,-12,-36,-52,-72,-92,-108,-116,-124,-132,-136,-148,-156,-164,-172,-184,-188,-184,-184,-184,-180,-184,-188,-192,-196,-200,-204,-200,-196,-196,-188,-188,-188,-192,-196,-200,-196,-188,-188,-184,-180,-176,-176,-180,-184,-184,-176,-172,-172,-164,-156,-156,-156,-160,-160,-160,-160,-152,-152,-148,-148,-152,-152,-152,-156,-156,-152,-152,-152,-148,-144,-144,-144,-152,-160,-164,-160,-160,-160,-156,-160,-164,-168,-172,-180,-180,-180,-180,-176,-176,-172,-176,-176,-180,-184,-188,-188,-184,-184,-184,-184,-184,-188,-192,-196,-200,-200,-200,-196,-192,-188,-188,-184,-180,-176,-176,-172,-168,-156,-148,-140,-136,-132,-132,-132,-132,-132,-128,-120,-112,-104,-104,-104,-100,-96,-96,-96,-96,-92,-96,-96,-92,-80,-68,-60,-60,-60,-68,-72,-76,-76,-80,-80,-88,-96,-104,-112,-120,-132,-144,-152,-168,-180,-192,-200,-208,-212,-216,-216,-212,-212,-212,-212,-212,-216,-220,-224,-224,-228,-224,-224,-224,-228,-240,-248,-248,-236,-224,-216,-212,-204,-200,-204,-212,-220,-228,-224,-220,-224,-232,-240,-252,-260,-268,-264,-248,-216,-176,-132,-84,-32,16,96,204,344,500,656,796,956,1152,1352,1516,1624,1660,1588,1372,1048,684,344,40,-220,-440,-580,-644,-664,-660,-616,-548,-488,-440,-400,-372,-336,-288,-240,-208,-192,-192,-196,-188,-172,-164,-172,-176,-180,-172,-156,-156,-164,-172,-168,-164,-164,-164,-164,-156,-160,-168,-160,-132,-116,-120,-128,-140,-148,-144,-128,-124,-132,-132,-116,-108,-112,-124,-128,-128,-128,-132,-132,-124,-108,-84,-64,-52,-48,-52,-44,-32,-12,4,4,-4,-20,-28,-20,-8,0,16,28,28,16,8,20,44,72,92,96,92,100,120,128,116,104,112,120,124,144,160,164,172,180,168,152,144,144,160,168,176,180,176,168,156,148,144,128,112,96,72,68,72,60,20,-12,-40,-52,-68,-76,-84,-88,-100,-132,-168,-204,-228,-240,-244,-244,-252,-260,-264,-264,-272,-292,-320,-332,-328,-328,-328,-312,-300,-300,-304,-312,-328,-332,-320,-312,-312,-304,-304,-312,-324,-332,-336,-336,-328,-316,-324,-336,-348,-348,-344,-328,-300,-284
2026-03-17 15:58:23,-284,-280,-272,-260,-248,-236,-232,-232,-240,-240,-232,-228,-236,-232,-228,-244,-268,-272,-256,-256,-252,-244,-252,-252,-240,-236,-248,-264,-268,-268,-260,-256,-244,-212,-196,-204,-212,-212,-212,-220,-220,-220,-220,-216,-208,-196,-192,-204,-224,-236,-240,-232,-220,-224,-224,-220,-232,-248,-252,-248,-240,-236,-240,-244,-232,-224,-224,-228,-216,-208,-212,-212,-212,-216,-212,-196,-176,-168,-160,-156,-152,-156,-152,-140,-120,-108,-100,-96,-92,-92,-96,-96,-88,-64,-40,-32,-36,-44,-64,-84,-88,-84,-84,-92,-96,-84,-72,-60,-56,-64,-72,-76,-68,-56,-44,-40,-52,-88,-120,-136,-136,-140,-148,-156,-168,-172,-172,-172,-180,-184,-184,-184,-188,-196,-200,-196,-200,-216,-220,-220,-224,-220,-224,-236,-220,-184,-160,-156,-160,-176,-196,-196,-192,-196,-204,-196,-180,-164,-160,-168,-180,-176,-172,-176,-176,-164,-136,-92,-36,12,60,108,172,272,400,540,676,820,984,1176,1348,1488,1560,1556,1468,1280,988,652,324,28,-212,-392,-516,-588,-608,-592,-560,-512,-452,-392,-336,-284,-240,-220,-200,-172,-144,-124,-116,-116,-108,-96,-92,-96,-96,-88,-80,-72,-72,-64,-44,-28,-28,-32,-36,-32,-24,-12,-4,0,0,0,-8,-12,-4,0,0,-4,0,12,28,32,28,16,8,16,32,36,52,76,84,88,92,96,96,100,112,120,124,128,132,140,148,152,160,164,164,172,180,180,180,192,200,220,240,240,236,248,264,280,296,312,312,312,312,312,316,336,352,348,332,320,324,324,324,320,320,320,316,304,296,292,276,256,248,244,232,224,220,216,216,208,176,148,136,132,120,112,96,72,48,36,28,16,4,-4,-20,-40,-56,-68,-76,-84,-88,-92,-96,-112,-128,-144,-148,-144,-140,-136,-140,-148,-152,-148,-132,-120,-116,-124,-124,-120,-120,-124,-116,-100,-100,-104,-116,-132,-128,-112,-96,-88,-96,-108,-120,-128,-132,-132,-128,-120,-120,-120,-120,-132,-136,-124,-116,-116,-120,-112,-104,-100,-100,-100,-100,-96,-92,-100,-112,-116,-112,-108,-108,-112,-116,-128,-140,-144,-148,-144,-132,-132,-140,-148,-148,-148,-148,-152,-160,-164,-164,-164,-156,-152,-156,-180,-204,-208,-188,-168,-168,-164,-160,-168,-168,-164,-168,-172,-176,-176,-180,-188,-188,-184,-176,-172,-172,-172,-172,-172,-160,-148,-144,-140,-144,-156,-164,-160,-140,-128,-128,-132,-132,-128,-128,-116,-108,-112,-128,-128,-124,-116,-112,-108,-112,-128,-148,-164,-184,-200,-200,-196,-192,-204,-232,-260,-272,-280,-276,-268,-272,-288,-300,-320,-348,-352,-340,-324,-316,-320,-332,-340,-344,-348,-348,-352,-360,-376
2026-03-17 15:58:24,-384,-380,-388,-404,-404,-392,-388,-396,-404,-400,-384,-376,-380,-384,-384,-380,-380,-388,-400,-404,-408,-412,-416,-416,-408,-380,-344,-296,-252,-220,-180,-124,-24,116,272,396,512,668,848,1016,1152,1224,1224,1144,944,632,284,-32,-320,-572,-768,-892,-964,-992,-984,-936,-864,-780,-700,-640,-600,-568,-544,-524,-504,-492,-488,-484,-480,-480,-476,-472,-468,-468,-472,-488,-500,-492,-472,-456,-448,-448,-456,-464,-464,-456,-440,-428,-420,-420,-424,-436,-452,-468,-468,-456,-444,-432,-428,-428,-436,-444,-444,-436,-436,-444,-452,-448,-436,-428,-424,-420,-420,-420,-416,-408,-400,-388,-384,-384,-380,-372,-360,-360,-364,-376,-376,-372,-356,-340,-324,-320,-328,-348,-368,-364,-340,-320,-316,-324,-316,-296,-284,-280,-276,-272,-276,-284,-288,-292,-296,-296,-308,-324,-328,-320,-316,-316,-328,-348,-360,-372,-396,-412,-420,-420,-424,-428,-436,-440,-452,-476,-508,-524,-540,-560,-584,-600,-620,-636,-652,-676,-708,-732,-748,-764,-784,-800,-816,-820,-820,-824,-836,-844,-840,-836,-840,-844,-848,-852,-864,-880,-900,-904,-892,-884,-884,-884,-884,-884,-880,-880,-880,-888,-884,-872,-856,-852,-860,-868,-876,-888,-896,-892,-880,-872,-872,-872,-868,-876,-876,-872,-876,-892,-904,-904,-908,-916,-912,-900,-896,-900,-904,-904,-900,-888,-880,-880,-888,-896,-908,-920,-928,-920,-908,-900,-900,-896,-896,-908,-916,-928,-940,-948,-940,-920,-912,-912,-908,-908,-912,-908,-916,-920,-924,-932,-936,-936,-928,-924,-924,-924,-924,-932,-948,-960,-960,-952,-944,-936,-928,-932,-944,-960,-964,-948,-920,-892,-888,-908,-916,-912,-896,-884,-876,-872,-864,-848,-832,-828,-828,-824,-820,-816,-816,-816,-808,-808,-796,-780,-772,-768,-768,-780,-788,-788,-792,-788,-764,-740,-720,-708,-712,-720,-712,-700,-708,-720,-724,-720,-724,-728,-740,-760,-772,-780,-788,-792,-784,-788,-792,-792,-808,-824,-832,-832,-824,-816,-816,-812,-812,-816,-824,-824,-824,-820,-812,-812,-816,-820,-816,-796,-780,-764,-752,-760,-768,-764,-764,-772,-768,-752,-748,-764,-772,-772,-772,-772,-768,-756,-736,-704,-660,-612,-568,-520,-452,-356,-240,-100,48,188,324,476,648,800,924,1004,1004,904,680,356,0,-316,-584,-796,-948,-1040,-1092,-1112,-1092,-1036,-964,-896,-836,-784,-724,-680,-636,-592,-556,-532,-520,-520,-524,-520,-512,-516,-520,-516,-500,-488,-476,-472,-468,-460,-456,-456,-452,-452,-448,-440,-428,-416,-404,-396,-392,-392,-396,-400,-392,-376,-356,-344,-336,-328,-324,-320,-316,-300,-276,-256,-248,-248,-244,-228,-220,-216,-208,-212,-212,-204,-192,-180,-172,-164,-164,-148,-128,-116,-112,-108,-100,-80,-48,-32,-28,-32,-36,-28
2026-03-17 15:58:25,-4,12,32,44,48,48,48,48,40,36,48,68,84,92,100,112,116,112,108,108,112,108,100,96,88,80,88,100,96,76,60,60,64,56,40,24,16,4,-4,-16,-32,-44,-60,-72,-88,-112,-136,-140,-140,-140,-148,-156,-172,-192,-208,-216,-224,-244,-264,-272,-276,-272,-248,-232,-224,-224,-228,-228,-236,-244,-248,-252,-252,-244,-228,-216,-212,-216,-220,-216,-204,-196,-196,-192,-184,-180,-184,-188,-192,-192,-184,-180,-180,-180,-172,-168,-164,-160,-148,-140,-136,-136,-136,-136,-132,-128,-132,-132,-124,-120,-120,-120,-116,-124,-128,-124,-112,-104,-100,-104,-100,-96,-92,-92,-96,-92,-80,-72,-76,-84,-84,-76,-76,-88,-88,-76,-64,-56,-52,-48,-40,-32,-32,-36,-44,-48,-52,-52,-60,-68,-72,-72,-60,-32,-16,-16,-16,-24,-36,-44,-40,-32,-24,-24,-28,-28,-28,-16,0,12,20,32,32,32,40,44,44,52,64,72,88,104,128,140,136,116,112,124,132,128,136,144,148,148,144,152,160,160,152,160,192,208,208,208,200,192,188,192,196,200,200,192,176,160,144,124,112,108,108,112,112,104,88,80,80,84,92,92,88,84,76,72,80,92,96,92,84,84,88,100,104,92,76,64,72,92,104,112,120,124,124,120,116,108,100,100,108,116,120,120,124,124,140,176,220,260,296,332,380,456,564,712,868,1008,1140,1292,1460,1608,1724,1796,1792,1692,1464,1132,776,468,208,0,-160,-256,-308,-312,-272,-212,-148,-100,-52,0,52,108,144,164,180,204,232,248,244,236,228,224,228,236,252,264,272,280,284,288,296,296,296,300,304,308,320,332,344,352,352,344,344,356,360,360,372,380,368,356,364,384,400,408,412,416,424,428,428,428,436,444,452,456,460,472,488,500,504,504,508,516,524,528,536,544,564,584,596,592,592,608,620,624,628,644,668,684,688,692,700,708,708,700,696,700,708,720,724,720,712,704,692,688,700,708,708,708,708,704,700,688,684,684,672,664,668,668,656,636,620,596,572,548,532,520,512,492,472,460,444,424,404,396,392,384,372,356,336,320,300,280,268,256,260,284,300,304,300,288,268,260,272,272,272,288,304,304,296,296,292,288,280,272,268,276,288,296,296,296,296,292,296,308,320,320,320,320,320,328,340,344,332,320,312,312,312,308,300,292,292,292,296,312,332,352,360,356,348,340,316,296,292,308,324,328,332,324,312,308,300,300
2026-03-17 15:58:26,308,308,300,300,308,324,320,308,300,304,312,312,312,308,300,292,296,296,280,272,276,276,268,260,248,248,256,260,252,244,248,260,264,268,280,288,300,308,312,312,324,336,336,328,328,340,352,364,364,360,348,348,352,356,368,380,388,388,384,380,372,376,388,400,404,400,396,396,392,392,384,364,356,352,344,336,324,304,292,296,300,284,260,252,248,240,224,216,220,220,220,220,220,216,220,228,232,232,220,204,196,196,196,200,204,200,192,200,208,208,200,196,188,180,196,220,236,240,232,216,208,200,192,196,208,240,288,332,356,376,408,468,572,720,876,1008,1124,1260,1416,1572,1716,1800,1800,1732,1568,1280,936,616,344,116,-56,-172,-240,-268,-256,-216,-156,-88,-24,36,88,124,152,184,204,220,236,248,244,236,224,220,228,232,236,240,248,264,280,292,296,296,280,260,256,264,284,312,328,336,340,344,344,348,356,356,344,336,340,348,356,360,364,372,376,368,364,368,376,388,400,404,408,412,408,404,412,420,424,428,436,448,456,456,460,468,472,480,488,508,536,544,540,540,548,548,556,564,560,560,568,572,572,576,580,588,592,596,596,600,604,604,600,596,584,588,604,616,616,612,596,584,576,568,552,540,532,520,504,488,472,456,440,420,408,408,400,384,364,340,320,304,292,276,252,228,224,228,224,220,208,192,180,176,172,164,160,160,164,164,160,156,156,160,156,136,128,144,172,180,172,160,160,172,180,184,184,168,156,156,160,172,184,196,204,196,184,176,168,168,172,172,156,148,156,156,156,164,172,188,204,204,196,196,208,220,216,208,204,200,204,208,208,204,200,196,200,204,196,192,188,184,172,156,136,120,116,124,136,152,164,168,160,156,156,156,148,140,136,136,140,140,140,136,136,140,148,148,140,120,116,120,128,132,136,128,120,116,120,120,116,116,120,136,148,152,152,152,148,152,164,176,184,180,164,160,164,176,192,208,216,204,192,188,192,204,224,244,252,252,248,244,236,232,232,240,252,264,264,252,244,240,236,236,240,236,220,216,220,212,196,184,164,136,112,104,92,84,84,88,88,72,56,60,68,72,72,72,72,64,56,60,60,52,48,44,40,44,44,44,60,76,80,76,72,72,76,84,84,88,88,80,64,48,36,24,16,12,24,64
2026-03-17 15:58:27,108,148,184,232,296,368,448,556,680,804,936,1076,1228,1376,1500,1588,1616,1556,1392,1112,776,460,200,-4,-172,-300,-372,-392,-388,-356,-308,-240,-176,-124,-76,-32,4,36,60,76,88,108,116,124,128,132,136,128,124,120,128,136,136,136,136,128,124,136,156,156,156,160,156,144,140,152,172,192,204,212,216,216,216,212,212,224,240,248,252,256,256,264,268,260,256,260,252,244,248,256,268,276,284,292,296,308,316,316,316,320,328,328,324,336,356,364,380,396,400,408,424,440,460,480,476,448,412,396,412,432,432,428,432,440,444,444,440,420,404,400,416,432,440,444,444,436,432,424,408,396,396,404,400,384,368,340,304,284,268,244,224,208,192,180,180,176,168,160,140,112,92,76,56,44,36,36,40,48,48,40,24,8,4,4,0,-8,-4,8,24,28,24,0,-12,0,12,20,24,20,8,0,0,0,0,4,0,0,-4,-4,-4,-4,0,-4,-12,-20,-16,-4,0,0,0,0,4,12,8,12,24,20,12,8,4,0,4,4,0,0,0,-4,-12,-16,-28,-32,-20,-4,0,0,-4,-16,-20,-28,-32,-40,-40,-40,-36,-36,-36,-44,-56,-52,-36,-36,-44,-44,-32,-20,-8,-12,-32,-52,-68,-64,-40,-24,-20,-24,-44,-72,-88,-88,-88,-96,-96,-88,-76,-64,-56,-52,-44,-40,-36,-32,-28,-32,-32,-20,-16,-16,-12,0,8,16,20,20,32,40,40,20,0,-8,-12,0,24,40,48,44,44,36,32,32,36,48,64,80,84,72,52,32,28,24,24,24,20,12,-4,-32,-56,-64,-56,-52,-52,-56,-72,-92,-108,-120,-128,-128,-124,-120,-116,-112,-96,-92,-92,-88,-88,-92,-108,-120,-124,-120,-108,-112,-120,-136,-144,-136,-120,-120,-124,-128,-120,-116,-120,-116,-112,-116,-116,-112,-116,-128,-132,-116,-76,-24,12,40,64,100,156,256,400,552,684,800,928,1072,1216,1332,1400,1404,1312,1104,800,468,176,-72,-272,-428,-528,-580,-588,-560,-508,-452,-392,-340,-288,-244,-200,-156,-128,-120,-112,-92,-72,-64,-56,-36,-16,-8,-8,-12,-12,-8,-4,-4,0,0,0,-8,-12,-4,0,8,12,12,20,28,20,4,0,0,8,28,48,56,56,60,68,76,84,84,84,92,92,84,88,104,112,112,120,124,128,120,108,108,120,132,132,140,148,160,176,192,204,204,196,192,192,196,204,212,216,224,236,252,260,256,256,260,264,264,264,268,268,268,276,284,284,280
2026-03-17 15:58:28,280,284,296,304,304,300,292,288,276,268,256,244,240,244,236,220,208,204,188,168,148,116,92,72,56,40,24,8,0,0,0,-8,-16,-24,-32,-40,-44,-52,-60,-68,-76,-84,-84,-88,-96,-96,-92,-92,-100,-108,-120,-132,-140,-140,-132,-116,-104,-100,-92,-80,-84,-92,-100,-104,-116,-128,-128,-120,-112,-104,-92,-84,-76,-68,-68,-72,-76,-72,-76,-80,-84,-84,-80,-80,-76,-80,-84,-84,-84,-88,-96,-96,-88,-72,-68,-72,-80,-76,-72,-72,-64,-60,-52,-56,-68,-88,-112,-128,-132,-128,-120,-108,-100,-92,-96,-104,-104,-104,-100,-92,-92,-104,-116,-116,-120,-120,-108,-100,-108,-108,-104,-112,-120,-120,-124,-132,-132,-128,-128,-124,-120,-116,-120,-120,-120,-120,-116,-120,-128,-132,-136,-136,-136,-128,-120,-116,-100,-88,-84,-80,-64,-56,-52,-48,-48,-48,-40,-28,-20,-12,-4,4,8,8,8,0,0,-4,-8,0,12,20,20,12,4,-8,-16,-20,-28,-40,-48,-52,-52,-52,-64,-84,-100,-112,-128,-132,-136,-140,-144,-140,-132,-132,-140,-148,-156,-156,-160,-160,-160,-160,-164,-168,-164,-168,-172,-172,-168,-164,-164,-160,-156,-152,-152,-152,-156,-160,-156,-152,-144,-140,-140,-144,-148,-152,-156,-164,-164,-148,-120,-76,-32,0,40,80,132,212,328,460,588,708,836,992,1156,1284,1368,1376,1296,1112,828,504,208,-36,-244,-412,-520,-572,-588,-568,-520,-452,-384,-324,-268,-224,-184,-148,-120,-104,-88,-72,-64,-56,-52,-52,-52,-48,-40,-32,-24,-12,-12,-12,-8,-12,-16,-20,-20,-20,-12,-4,0,0,4,4,0,0,0,4,8,20,28,36,36,36,36,40,44,48,52,60,64,68,72,72,68,72,76,80,88,104,112,120,124,128,124,128,132,132,136,144,148,152,160,172,176,184,188,196,208,216,224,232,236,236,236,236,240,244,252,264,272,276,280,284,280,272,272,268,272,272,264,260,248,232,224,224,224,220,216,200,188,188,188,180,164,152,140,128,116,100,80,60,40,24,4,-8,-24,-36,-44,-48,-60,-68,-68,-76,-88,-96,-100,-108,-116,-120,-128,-132,-132,-136,-144,-148,-152,-152,-152,-152,-152,-156,-156,-156,-156,-156,-156,-156,-152,-148,-140,-140,-140,-140,-140,-136,-136,-136,-128,-124,-120,-120,-116,-116,-120,-120,-116,-116,-112,-104,-100,-96,-92,-92,-92,-96,-104,-112,-112,-108,-104,-104,-104,-104,-112,-120,-124,-128,-124,-116,-116,-120,-120,-120,-120,-120,-116,-116,-116,-112,-108,-108,-108,-112,-116,-116,-120,-124,-128,-132,-128,-128,-132,-140,-148,-148
2026-03-17 15:58:29,-148,-148,-144,-140,-140,-140,-140,-144,-148,-152,-156,-160,-156,-152,-148,-144,-140,-140,-132,-120,-112,-104,-92,-84,-80,-80,-76,-76,-80,-76,-68,-64,-60,-52,-52,-48,-40,-36,-36,-36,-36,-40,-36,-28,-20,-16,-8,-4,-12,-20,-20,-24,-24,-28,-40,-56,-64,-76,-88,-100,-116,-132,-140,-152,-168,-176,-180,-184,-192,-196,-192,-188,-180,-180,-184,-184,-176,-172,-164,-160,-160,-164,-172,-184,-192,-200,-208,-216,-216,-208,-200,-196,-192,-192,-196,-200,-196,-196,-196,-196,-192,-192,-188,-184,-184,-184,-180,-164,-136,-100,-56,-16,24,88,180,308,456,592,720,860,1024,1200,1364,1484,1528,1488,1344,1068,724,388,96,-156,-360,-504,-588,-616,-600,-560,-508,-456,-408,-364,-324,-284,-252,-220,-196,-176,-160,-148,-136,-132,-132,-132,-132,-128,-120,-116,-116,-108,-100,-96,-92,-88,-84,-80,-72,-64,-60,-56,-52,-40,-28,-12,-4,-4,-4,-4,0,0,-4,-4,-8,-12,-12,-12,-8,0,4,20,32,32,36,48,56,84,128,176,212,240,248,240,224,200,172,156,148,144,156,180,204,204,196,176,136,96,72,56,48,52,52,56,72,100,128,156,184,208,220,236,252,272,308,364,436,504,552,572,552,508,440,368,304,260,220,180,128,76,36,0,-20,-40,-52,-64,-76,-80,-84,-84,-84,-80,-76,-80,-84,-92,-104,-116,-128,-132,-136,-136,-140,-144,-152,-160,-172,-184,-192,-192,-184,-172,-164,-160,-164,-168,-176,-176,-176,-176,-172,-168,-168,-180,-188,-200,-216,-224,-228,-228,-220,-212,-204,-196,-192,-184,-184,-180,-180,-176,-172,-164,-152,-144,-132,-120,-116,-120,-128,-136,-144,-152,-148,-144,-132,-120,-120,-132,-152,-176,-196,-208,-220,-232,-236,-240,-240,-236,-232,-228,-224,-216,-212,-212,-212,-212,-216,-220,-224,-224,-224,-224,-220,-216,-212,-216,-224,-228,-232,-232,-228,-224,-220,-216,-212,-216,-224,-228,-228,-232,-228,-224,-220,-224,-224,-228,-236,-244,-248,-252,-252,-248,-240,-236,-228,-224,-220,-212,-204,-200,-192,-184,-176,-172,-168,-164,-164,-160,-156,-156,-148,-136,-128,-124,-124,-128,-140,-148,-152,-152,-148,-132,-120,-112,-108,-108,-112,-124,-132,-140,-144,-148,-152,-160,-164,-180,-204,-224,-240,-248,-252,-252,-256,-268,-276,-284,-292,-292,-292,-296,-296,-292,-288,-284,-284,-288,-292,-300,-300,-300,-300,-300,-300,-304,-304,-304,-308,-308,-304,-304,-304,-300,-300,-300,-300,-300,-304,-308,-312,-320,-328,-332,-328,-316,-296,-260,-220,-172,-128,-80,-24,60,180,324,472,600,736,896,1080,1252,1384,1452,1436,1316,1064,720,364,52,-208,-420,-580,-680
2026-03-17 15:58:30,-724,-736,-712,-668,-612,-552,-492,-440,-396,-352,-316,-288,-264,-244,-236,-232,-228,-228,-228,-228,-228,-224,-216,-212,-208,-200,-196,-192,-192,-192,-188,-188,-188,-180,-176,-172,-164,-164,-160,-156,-152,-152,-148,-144,-140,-136,-128,-120,-116,-112,-112,-108,-100,-92,-88,-80,-76,-72,-72,-64,-60,-52,-44,-36,-32,-24,-20,-20,-20,-16,-12,-4,0,4,12,20,32,36,40,44,52,64,76,84,92,100,104,108,112,116,120,124,132,136,144,148,148,148,148,152,152,148,148,148,148,148,144,140,132,128,120,116,112,108,96,84,64,44,24,4,-12,-32,-48,-64,-84,-100,-116,-132,-148,-164,-176,-188,-196,-204,-216,-228,-236,-244,-252,-260,-268,-276,-276,-280,-284,-288,-288,-288,-292,-296,-296,-296,-296,-296,-296,-296,-292,-292,-292,-292,-288,-288,-284,-280,-280,-276,-272,-276,-276,-272,-272,-272,-264,-260,-260,-256,-256,-256,-256,-252,-252,-248,-244,-240,-240,-240,-236,-236,-236,-240,-240,-240,-236,-232,-232,-232,-236,-240,-240,-240,-244,-244,-240,-240,-240,-240,-244,-248,-248,-248,-252,-252,-252,-252,-252,-252,-256,-260,-260,-260,-260,-260,-260,-260,-260,-260,-260,-260,-260,-256,-256,-260,-260,-260,-260,-260,-256,-256,-256,-252,-252,-252,-248,-248,-244,-240,-236,-240,-240,-240,-240,-236,-236,-236,-236,-236,-240,-240,-240,-236,-236,-232,-232,-232,-232,-232,-228,-228,-224,-220,-212,-208,-208,-200,-196,-188,-180,-176,-168,-160,-148,-140,-132,-124,-120,-112,-108,-104,-100,-100,-100,-96,-96,-96,-100,-100,-104,-100,-88,-68,-56,-52,-52,-56,-68,-76,-80,-84,-88,-92,-100,-108,-116,-124,-140,-152,-164,-172,-184,-188,-196,-204,-208,-208,-212,-212,-208,-208,-208,-204,-208,-212,-212,-212,-216,-216,-212,-212,-212,-212,-216,-216,-216,-212,-204,-204,-200,-200,-196,-192,-188,-192,-192,-192,-192,-196,-200,-212,-216,-216,-208,-192,-160,-116,-76,-36,0,48,132,248,392,540,672,804,952,1124,1288,1420,1484,1464,1344,1096,768,432,140,-96,-292,-444,-540,-588,-600,-576,-528,-472,-412,-356,-308,-268,-236,-200,-176,-160,-144,-128,-120,-112,-108,-108,-104,-100,-100,-92,-84,-76,-72,-72,-72,-76,-76,-72,-68,-64,-56,-52,-52,-48,-40,-36,-32,-28,-24,-20,-12,-4,0,0,4,8,8,8,8,8,16,28,40,48,52,52,56,60,64,68,80,92,100,108,116,116,116,124,128,136,144,156,168,176,180,180,180,188,196,204,216,228,236,240,248,252,260,264,268,272,280,280,280,280,288,292,292,288,288,284,288,288,288,288,288,280,272,264
2026-03-17 15:58:31,260,256,248,240,228,216,204,184,168,152,128,108,96,80,64,48,32,16,0,-12,-28,-40,-48,-52,-52,-52,-60,-72,-84,-92,-96,-100,-104,-108,-108,-112,-112,-112,-112,-112,-116,-116,-116,-116,-116,-116,-116,-120,-120,-116,-112,-108,-100,-96,-96,-96,-96,-92,-92,-88,-92,-92,-88,-84,-80,-80,-72,-72,-68,-68,-68,-68,-68,-68,-64,-56,-48,-44,-40,-36,-32,-32,-32,-36,-40,-44,-48,-52,-52,-48,-48,-48,-40,-36,-40,-44,-48,-56,-60,-60,-60,-56,-56,-52,-52,-52,-52,-60,-60,-64,-64,-64,-64,-68,-68,-68,-68,-72,-72,-76,-76,-80,-80,-80,-84,-84,-80,-80,-80,-80,-80,-80,-72,-72,-72,-72,-68,-64,-64,-60,-64,-68,-68,-64,-64,-64,-64,-64,-68,-64,-64,-60,-60,-60,-60,-52,-48,-44,-40,-36,-32,-32,-28,-24,-16,-12,-8,-4,0,4,12,20,28,40,48,48,48,44,48,52,56,60,64,64,68,68,72,80,92,104,104,100,96,92,84,76,68,60,60,56,44,36,28,16,0,-4,-8,-12,-20,-24,-32,-44,-48,-56,-64,-64,-64,-64,-64,-60,-60,-56,-52,-52,-56,-52,-48,-48,-48,-48,-52,-56,-60,-52,-48,-44,-44,-48,-52,-52,-52,-44,-40,-36,-36,-40,-56,-68,-76,-76,-68,-40,0,44,92,148,204,276,380,512,660,796,924,1072,1244,1432,1596,1708,1744,1696,1528,1232,884,544,244,-8,-212,-352,-432,-460,-460,-428,-376,-312,-252,-196,-148,-112,-84,-56,-28,-8,8,24,32,40,44,44,44,44,48,52,60,64,68,72,76,76,72,72,76,80,96,104,108,116,120,120,120,120,128,136,144,156,160,164,164,164,168,176,184,192,204,212,216,216,212,208,204,208,212,224,240,252,256,260,264,268,268,272,280,288,300,308,312,316,324,328,336,340,344,356,372,384,392,408,424,440,452,460,460,460,460,452,444,440,432,424,420,420,420,424,428,432,432,432,424,416,412,408,400,392,384,376,360,348,332,312,292,268,248,236,232,232,228,212,192,176,164,156,136,108,84,60,36,20,0,-16,-32,-48,-60,-68,-72,-76,-84,-92,-100,-112,-116,-104,-88,-56,-12,40,108,168,204,216,216,220,212,184,148,108,60,0,-84,-156,-196,-220,-252,-268,-264,-252,-236,-212,-192,-176,-160,-144,-132,-124,-104,-96,-96,-100,-92,-72,-52,-20,16,56,100,144,164,148,108,68,40,12,-8,-24,-28,-32,-32,-48,-68,-92,-108,-116,-120,-116,-108,-100,-100,-104,-108,-96,-64,-24
2026-03-17 15:58:32,0,16,44,72,92,104,124,164,196,200,172,132,80,8,-64,-124,-168,-204,-228,-244,-252,-248,-240,-232,-220,-200,-184,-180,-176,-156,-136,-112,-84,-68,-64,-64,-64,-64,-52,-44,-32,-16,8,36,72,120,156,160,144,116,68,8,-40,-68,-60,-44,-24,-20,-20,-36,-68,-80,-80,-88,-92,-84,-68,-52,-32,-12,12,48,92,128,144,152,140,108,84,96,132,168,176,160,132,88,36,0,-8,-4,-4,-20,-40,-68,-84,-92,-92,-92,-88,-88,-96,-112,-132,-148,-160,-164,-156,-136,-104,-76,-68,-64,-56,-40,-20,4,28,52,76,92,108,108,76,16,-44,-104,-152,-180,-192,-188,-184,-192,-212,-224,-216,-204,-196,-172,-128,-80,-36,8,64,120,196,312,464,628,796,960,1120,1284,1452,1600,1696,1720,1660,1508,1260,948,612,296,20,-216,-416,-552,-616,-632,-620,-592,-552,-496,-424,-348,-276,-216,-176,-144,-108,-48,28,112,168,172,128,64,16,4,28,56,76,92,96,80,28,-32,-76,-104,-112,-108,-96,-56,8,68,96,108,104,92,80,72,76,72,64,60,52,52,44,24,4,-24,-48,-40,-16,0,8,16,36,80,148,200,236,288,340,352,348,348,344,328,296,240,164,108,88,84,84,100,120,140,160,188,220,252,276,296,328,360,368,364,364,360,340,320,308,328,380,440,480,504,532,548,540,520,488,456,404,340,280,224,160,100,52,28,40,64,84,76,64,76,112,140,148,144,124,100,112,168,240,292,288,216,92,-40,-160,-244,-304,-328,-324,-304,-252,-184,-136,-140,-164,-176,-180,-188,-192,-184,-168,-156,-116,-40,32,68,88,96,84,60,32,-16,-84,-144,-180,-172,-140,-124,-164,-232,-280,-292,-276,-248,-220,-196,-184,-180,-156,-124,-88,-64,-64,-88,-128,-132,-72,12,76,104,112,96,48,16,4,-12,-28,-32,-40,-48,-60,-84,-124,-172,-224,-260,-268,-248,-212,-180,-164,-160,-156,-124,-72,-32,0,56,124,172,188,172,104,8,-88,-184,-240,-248,-232,-216,-172,-112,-80,-92,-132,-188,-240,-264,-268,-256,-216,-152,-84,-16,44,100,120,100,40,-28,-64,48,196,188,64,-100,-76,-64,-144,-92,-96,-120,-148,-156,-156,-168,-168,-160,-160,-160,-140,-104,-80,-56,-28,0,28,52,40,-4,-72,-124,-132,-120,-104,-76,-40,-12,-8,-12,-8,8,-8,-60,8,124,136,124,124,84,16,-44,-92,-144,-192,-180,-124,-48,40,84,32,-68,-184,-268,-296,-296,-304,-316,-316,-296,-264,-232,-204,-188,-184,-188,-168,-124,-96,-104,-136,-164
2026-03-17 15:58:33,-196,-236,-256,-264,-260,-196,-56,92,184,160,44,-88,-200,-312,-416,-496,-520,-484,-408,-316,-244,-200,-172,-144,-96,0,120,276,440,576,712,892,1108,1300,1436,1488,1460,1340,1100,772,448,176,-32,-208,-368,-528,-656,-712,-684,-604,-524,-472,-444,-440,-436,-436,-444,-432,-376,-300,-244,-216,-208,-224,-248,-264,-280,-292,-292,-264,-184,-76,32,172,364,548,640,568,320,-20,-340,-572,-672,-668,-628,-580,-532,-488,-432,-368,-312,-260,-224,-208,-212,-224,-228,-220,-196,-172,-156,-144,-140,-148,-156,-148,-128,-112,-112,-116,-100,-76,-48,-32,-52,-104,-168,-204,-200,-172,-144,-132,-124,-116,-108,-108,-116,-120,-112,-88,-48,-4,12,4,-24,-64,-76,-64,-52,-36,-20,-12,-4,-4,-4,-20,-48,-68,-56,-36,-20,-12,0,8,8,0,-16,-44,-84,-128,-164,-196,-228,-236,-216,-176,-140,-124,-152,-224,-316,-376,-404,-416,-432,-456,-488,-504,-504,-500,-504,-508,-504,-500,-516,-544,-568,-580,-580,-580,-568,-544,-528,-536,-556,-568,-580,-596,-608,-616,-620,-600,-564,-528,-508,-504,-516,-540,-568,-588,-588,-576,-584,-608,-632,-644,-644,-636,-628,-628,-624,-616,-596,-584,-584,-596,-616,-628,-628,-612,-596,-580,-568,-568,-596,-628,-632,-620,-600,-576,-564,-564,-560,-548,-528,-508,-500,-484,-452,-424,-420,-448,-508,-592,-672,-732,-768,-784,-768,-728,-688,-656,-648,-660,-692,-712,-712,-704,-708,-716,-712,-700,-688,-680,-676,-680,-704,-720,-720,-700,-676,-656,-648,-656,-672,-688,-700,-700,-688,-680,-688,-688,-692,-700,-708,-728,-756,-768,-764,-740,-708,-688,-684,-696,-720,-736,-744,-740,-724,-712,-708,-696,-656,-612,-596,-616,-656,-704,-748,-756,-736,-708,-692,-704,-736,-772,-792,-784,-752,-724,-708,-704,-708,-708,-704,-704,-704,-708,-708,-708,-696,-660,-628,-624,-632,-644,-656,-660,-652,-632,-620,-620,-612,-600,-604,-616,-628,-632,-632,-644,-668,-700,-740,-764,-772,-780,-796,-796,-780,-764,-772,-788,-788,-784,-780,-776,-776,-776,-784,-784,-768,-752,-748,-760,-764,-764,-772,-784,-800,-812,-808,-768,-740,-736,-720,-688,-652,-612,-584,-592,-632,-692,-744,-788,-824,-844,-852,-844,-832,-824,-808,-780,-740,-696,-640,-592,-548,-476,-364,-212,-44,92,216,360,528,696,828,904,908,828,644,360,40,-268,-532,-736,-900,-1008,-1060,-1068,-1052,-1020,-964,-904,-856,-820,-796,-784,-776,-768,-748,-712,-680,-664,-660,-652,-636,-616,-604,-596,-584,-572,-552,-540,-536,-544,-548,-536,-500,-436,-384,-360,-360,-376,-396,-432,-464,-472,-460,-444,-444,-456,-460,-460,-456,-456,-448,-432,-412,-396,-372,-340,-320,-320,-320,-312,-288,-248,-196,-144
2026-03-17 15:58:34,-104,-92,-100,-128,-172,-220,-264,-296,-312,-320,-332,-336,-316,-280,-256,-240,-228,-204,-188,-176,-164,-144,-112,-84,-68,-52,-44,-52,-52,-40,-4,36,60,76,76,64,48,48,72,124,176,200,180,140,76,0,-72,-116,-140,-152,-156,-152,-144,-124,-104,-100,-116,-132,-136,-132,-136,-152,-168,-180,-196,-216,-248,-268,-268,-256,-240,-236,-244,-252,-264,-280,-284,-260,-224,-200,-188,-184,-192,-220,-264,-304,-340,-360,-360,-356,-340,-324,-312,-304,-296,-292,-292,-308,-316,-320,-320,-324,-320,-316,-312,-296,-284,-280,-268,-252,-244,-232,-216,-196,-172,-140,-128,-136,-148,-164,-180,-184,-168,-136,-112,-100,-96,-100,-112,-124,-148,-168,-172,-164,-152,-144,-136,-128,-120,-108,-92,-84,-88,-88,-92,-104,-96,-60,-4,60,120,152,152,120,64,-8,-92,-152,-180,-192,-200,-208,-208,-200,-184,-164,-152,-144,-148,-156,-140,-112,-88,-68,-48,-36,-40,-36,-28,-20,-12,-12,-24,-24,-4,20,32,52,88,108,100,76,44,12,-8,-24,-36,-48,-52,-48,-52,-52,-40,-36,-32,-24,-20,-16,0,12,16,16,28,56,84,104,116,120,132,132,124,128,144,160,172,180,172,160,160,168,180,192,212,244,276,320,352,360,336,292,240,188,136,104,104,116,120,116,120,124,120,116,108,104,104,112,120,120,104,80,60,56,64,76,80,72,68,72,72,80,92,100,96,100,108,108,104,104,120,144,160,184,204,216,212,204,200,192,160,108,60,40,32,16,12,16,12,16,40,56,76,116,164,216,276,340,404,484,592,732,864,980,1104,1252,1412,1564,1672,1712,1676,1544,1304,992,672,384,148,-40,-184,-272,-304,-296,-260,-212,-160,-104,-48,4,56,104,160,204,240,272,284,292,300,324,356,380,396,396,384,376,360,340,328,328,352,380,384,368,348,324,296,272,260,256,256,260,264,276,292,316,332,348,360,360,348,352,376,396,400,408,416,424,444,464,476,476,468,468,484,508,536,568,588,588,564,524,496,488,500,512,516,520,528,532,536,544,560,576,600,616,636,648,660,660,656,648,644,656,676,692,696,692,696,692,680,668,660,656,660,672,680,688,692,684,664,652,648,652,652,640,628,628,636,648,672,708,736,748,744,716,656,580,504,432,372,324,288,272,272,280,284,288,288,272,264,276,296,300,292,284,284,288,296,292,280,280,280,284,296,308,308,320,348,372,384,396,404,424,456,492,516,520,504,456,392,332,276,236
2026-03-17 15:58:35,224,220,228,236,240,248,256,276,304,328,340,348,344,332,332,336,332,332,340,368,404,412,408,412,432,464,504,544,568,556,508,444,392,368,360,348,328,308,304,308,320,340,352,348,340,340,340,340,344,360,372,380,384,384,380,368,360,360,360,372,400,432,452,460,448,432,404,380,376,372,356,360,372,392,412,436,468,492,476,432,388,344,304,288,280,276,276,276,280,288,304,320,324,336,360,368,360,348,340,356,408,468,516,548,568,552,512,468,424,364,316,296,284,300,352,412,472,516,556,596,604,600,608,628,664,712,744,732,684,620,544,464,376,300,256,232,224,232,252,276,296,324,348,368,380,380,388,404,420,444,472,516,592,684,772,824,808,728,616,468,312,180,108,92,124,172,204,216,212,192,156,124,112,136,164,184,204,228,252,272,300,332,348,344,328,316,308,316,340,384,448,528,592,608,584,544,496,448,400,364,376,428,500,584,704,844,964,1060,1172,1316,1480,1640,1760,1828,1812,1668,1388,1048,728,464,244,64,-52,-108,-112,-36,100,244,344,380,364,324,268,216,192,196,208,224,228,220,204,192,188,188,188,188,192,192,196,216,256,312,368,428,488,536,556,552,516,464,432,436,488,568,652,688,652,572,472,360,252,172,124,112,132,164,204,252,300,344,376,404,428,432,424,424,456,520,596,664,716,744,728,700,676,656,636,620,608,592,568,552,532,508,480,456,436,436,460,488,520,564,616,656,676,692,716,720,708,696,696,692,692,696,708,740,772,796,804,796,764,720,680,648,640,660,680,692,684,652,604,552,488,416,364,332,320,324,332,332,332,340,340,324,300,284,284,304,328,348,352,344,324,312,308,304,300,308,324,348,360,348,312,244,176,120,88,88,124,156,176,184,180,168,136,100,68,60,68,88,108,136,156,168,176,176,180,204,240,276,300,308,320,336,360,392,412,392,348,308,276,244,208,192,200,216,212,188,160,124,88,64,56,64,72,80,96,120,136,148,164,188,204,212,212,204,188,184,204,244,284,292,280,260,236,216,216,232,240,240,244,244,232,200,156,124,96,72,56,56,68,80,92,96,84,76,68,72,100,140,176,196,188,172,148,124,104,100,108,128,156,188,216,248,276,296,304,292,280,268,256,224,176,128,92,56,36,32,20,16
2026-03-17 15:58:36,32,60,84,100,116,136,156,180,192,196,208,224,240,240,252,284,316,332,348,364,376,368,336,300,272,228,188,168,180,216,248,244,224,196,152,96,52,36,32,32,24,20,16,16,12,4,12,28,40,52,84,116,140,156,160,156,148,144,128,100,80,76,64,40,24,20,16,24,40,56,72,88,92,80,64,32,-8,-36,-56,-60,-52,-32,0,40,68,108,160,216,268,332,412,528,672,816,940,1072,1228,1400,1560,1672,1704,1644,1472,1196,856,532,260,32,-168,-324,-416,-456,-452,-384,-280,-172,-80,-24,-8,-16,-36,-52,-64,-72,-76,-64,-40,-12,12,20,20,32,52,68,88,92,92,100,112,128,140,156,172,196,208,204,204,204,192,160,136,152,192,228,248,256,232,180,136,128,156,204,252,288,300,284,240,192,144,104,68,56,72,108,160,204,228,240,236,244,288,340,372,392,392,388,376,352,328,324,340,360,372,372,360,356,364,364,356,356,348,344,344,348,360,368,384,384,376,372,368,372,396,432,456,464,452,428,396,376,364,348,320,296,288,300,308,312,316,320,304,264,224,192,148,116,104,100,100,120,136,128,108,100,108,128,136,104,60,28,0,-20,-36,-56,-68,-84,-92,-104,-104,-92,-80,-84,-92,-96,-96,-88,-76,-68,-52,-32,-8,4,20,32,40,72,120,148,124,52,-24,-96,-152,-196,-220,-216,-192,-168,-140,-116,-96,-84,-76,-72,-64,-56,-56,-48,-40,-36,-28,-16,-4,4,12,12,0,-4,4,28,64,104,136,140,112,68,12,-44,-100,-116,-104,-92,-92,-92,-88,-84,-76,-60,-48,-48,-56,-64,-64,-60,-60,-56,-52,-48,-40,-44,-40,-40,-48,-48,-40,-32,-24,-20,-36,-60,-72,-76,-72,-64,-48,-36,-32,-36,-32,-24,-28,-44,-64,-72,-64,-52,-40,-36,-32,-40,-56,-76,-88,-84,-80,-68,-40,-16,-8,-4,0,4,12,24,28,28,16,-16,-60,-96,-120,-124,-108,-92,-80,-64,-48,-40,-40,-40,-20,0,0,4,16,28,40,44,36,20,16,28,52,76,96,112,128,144,160,160,136,92,40,4,-16,-32,-36,-48,-76,-108,-120,-124,-140,-156,-168,-164,-160,-152,-128,-104,-100,-108,-116,-120,-120,-120,-112,-96,-80,-68,-60,-60,-60,-68,-92,-120,-128,-112,-72,-4,60,100,92,48,-24,-108,-180,-228,-260,-276,-272,-264,-260,-256,-232,-176,-112,-64,-36,0,52,124,216,340,484,608,720,856,1008,1164,1296,1396,1420,1352,1180,916,612,312,60,-140
2026-03-17 15:58:37,-324,-468,-560,-592,-552,-452,-348,-256,-184,-148,-152,-180,-204,-224,-240,-248,-240,-208,-172,-148,-132,-108,-84,-68,-56,-52,-52,-52,-44,-28,-24,-28,-32,-20,-12,-8,8,48,88,120,136,136,116,80,52,32,20,8,0,-12,-28,-40,-56,-76,-76,-60,-28,-8,12,36,48,52,48,44,44,52,56,60,64,80,108,136,144,136,140,148,152,156,160,164,184,208,220,224,228,240,244,248,248,244,232,224,220,224,236,244,248,248,244,240,248,252,240,240,260,284,312,336,352,352,332,288,240,204,184,176,176,184,200,212,220,216,196,164,136,104,56,24,16,8,-8,-40,-68,-88,-84,-80,-84,-88,-96,-88,-80,-84,-88,-84,-92,-124,-160,-184,-200,-212,-216,-216,-208,-196,-188,-180,-176,-180,-192,-204,-208,-204,-192,-176,-156,-140,-132,-132,-136,-144,-132,-96,-48,0,16,4,-32,-84,-144,-200,-232,-224,-188,-144,-112,-104,-120,-144,-176,-220,-244,-256,-256,-236,-208,-192,-180,-164,-148,-140,-132,-132,-132,-132,-132,-132,-124,-112,-100,-92,-84,-76,-68,-60,-64,-80,-96,-92,-76,-64,-68,-88,-108,-132,-144,-144,-140,-144,-156,-180,-200,-212,-216,-216,-212,-212,-212,-200,-176,-148,-132,-120,-112,-112,-124,-144,-160,-176,-180,-176,-172,-180,-188,-180,-156,-132,-108,-92,-92,-108,-128,-140,-152,-156,-152,-148,-140,-136,-132,-132,-128,-132,-152,-176,-196,-220,-228,-212,-188,-164,-148,-140,-140,-140,-136,-128,-116,-92,-64,-48,-40,-28,-24,-16,-8,0,12,40,64,68,56,40,16,-4,-32,-52,-72,-88,-108,-128,-136,-136,-140,-144,-144,-148,-160,-168,-164,-156,-156,-160,-164,-172,-180,-184,-188,-192,-192,-192,-184,-180,-180,-172,-160,-156,-156,-148,-148,-152,-144,-128,-116,-112,-112,-120,-124,-132,-152,-172,-188,-204,-216,-216,-216,-224,-232,-240,-240,-248,-252,-252,-244,-224,-180,-128,-72,-20,24,84,164,264,384,520,644,748,872,1032,1184,1308,1384,1392,1324,1164,900,588,284,20,-196,-376,-516,-608,-656,-652,-612,-564,-500,-436,-388,-352,-316,-260,-192,-128,-84,-64,-64,-68,-80,-100,-116,-120,-124,-132,-152,-180,-200,-196,-180,-160,-144,-132,-124,-116,-116,-112,-104,-92,-80,-64,-40,-16,0,0,0,-4,0,20,40,56,56,40,24,8,-4,-16,-32,-36,-40,-36,-32,-32,-36,-28,-12,-8,-4,0,8,16,24,24,28,40,60,72,80,84,84,96,108,112,120,144,180,232,284,320,332,324,304,272,236,216,204,200,200,200,184,168,148,128,116,116,120,124,132,140,152,160
2026-03-17 15:58:38,164,164,164,164,168,168,172,168,156,140,136,136,128,120,96,60,16,-16,-32,-40,-40,-44,-52,-56,-56,-56,-48,-48,-68,-96,-128,-168,-212,-248,-272,-284,-276,-256,-224,-204,-192,-204,-224,-244,-260,-276,-284,-284,-280,-264,-252,-252,-252,-244,-228,-212,-196,-188,-176,-164,-140,-116,-88,-60,-48,-48,-60,-84,-124,-160,-184,-200,-216,-232,-244,-248,-248,-244,-236,-220,-204,-192,-188,-180,-180,-180,-172,-156,-148,-148,-148,-148,-148,-144,-136,-120,-100,-88,-80,-68,-64,-80,-104,-112,-116,-128,-156,-188,-216,-232,-240,-240,-236,-224,-208,-200,-200,-204,-208,-208,-204,-204,-200,-188,-176,-168,-164,-156,-148,-136,-128,-132,-144,-156,-160,-156,-152,-136,-116,-112,-120,-136,-148,-164,-180,-192,-196,-196,-208,-220,-228,-244,-252,-256,-252,-240,-236,-228,-216,-208,-200,-188,-176,-152,-124,-104,-92,-88,-84,-64,-24,20,56,80,88,68,36,0,-40,-80,-116,-148,-172,-176,-168,-156,-140,-120,-100,-80,-68,-56,-52,-48,-52,-60,-64,-56,-44,-36,-36,-36,-36,-40,-56,-76,-84,-96,-112,-136,-156,-180,-196,-212,-220,-220,-216,-212,-208,-212,-212,-216,-224,-232,-236,-244,-244,-244,-248,-252,-252,-252,-244,-232,-220,-208,-200,-192,-184,-180,-176,-180,-188,-196,-196,-196,-196,-188,-184,-164,-120,-76,-44,-20,-8,-8,-16,-12,20,104,228,364,500,636,792,964,1136,1276,1348,1348,1268,1088,804,484,184,-68,-280,-444,-560,-636,-668,-672,-648,-596,-528,-456,-376,-300,-224,-148,-76,-28,-8,-16,-52,-100,-140,-172,-196,-208,-208,-196,-180,-152,-124,-104,-92,-84,-88,-96,-100,-104,-112,-116,-116,-104,-88,-68,-52,-36,-24,-16,-8,0,0,4,4,4,4,20,60,96,116,120,116,96,60,12,-28,-64,-80,-88,-84,-72,-48,-32,-12,0,12,12,20,28,40,64,84,104,124,144,156,156,152,152,164,188,208,216,224,244,260,264,264,256,256,264,272,276,284,272,240,204,176,144,124,124,140,156,172,180,180,172,168,160,156,156,152,148,148,148,140,124,116,112,116,120,124,128,116,92,56,20,-8,-28,-52,-80,-104,-136,-176,-216,-248,-268,-280,-284,-284,-276,-272,-264,-252,-240,-232,-232,-236,-240,-236,-224,-212,-204,-196,-196,-196,-196,-196,-192,-184,-164,-148,-136,-136,-140,-140,-136,-140,-148,-152,-152,-160,-176,-188,-196,-204,-204,-204,-200,-192,-180,-168,-156,-148,-140,-136,-140,-144,-156,-168,-172,-176,-172,-160,-148,-144,-148,-148,-140,-128,-120,-112,-100,-84,-84,-100,-124,-148,-172,-192,-200,-192,-176,-148,-112,-80,-76
2026-03-17 15:58:39,-92,-120,-156,-196,-228,-248,-256,-252,-240,-224,-208,-200,-196,-192,-184,-176,-168,-160,-152,-148,-144,-152,-168,-188,-216,-228,-216,-188,-156,-132,-120,-120,-136,-160,-192,-220,-236,-236,-228,-220,-204,-180,-164,-152,-140,-140,-148,-160,-176,-188,-200,-204,-204,-200,-184,-168,-148,-132,-116,-104,-88,-60,-36,-20,-20,-44,-72,-88,-100,-116,-124,-120,-100,-80,-68,-64,-56,-44,-44,-56,-72,-84,-92,-100,-108,-120,-140,-160,-172,-176,-176,-180,-188,-188,-180,-164,-148,-132,-120,-108,-104,-108,-120,-120,-124,-132,-136,-148,-168,-192,-208,-220,-228,-228,-228,-232,-240,-252,-256,-256,-252,-248,-244,-240,-236,-232,-232,-236,-240,-240,-232,-224,-216,-208,-212,-216,-216,-216,-208,-188,-144,-96,-40,16,80,144,232,340,468,580,672,764,892,1048,1204,1328,1392,1384,1284,1072,768,444,152,-92,-296,-452,-544,-572,-560,-520,-464,-400,-348,-312,-292,-292,-292,-284,-264,-236,-208,-176,-148,-128,-124,-128,-140,-152,-164,-164,-144,-128,-120,-116,-112,-108,-100,-80,-64,-40,-16,0,0,-8,-28,-52,-68,-72,-72,-76,-76,-72,-64,-56,-40,-24,-12,-4,-4,-8,-16,-24,-28,-16,0,28,48,68,76,80,72,48,24,4,4,12,24,36,48,56,68,80,100,120,144,164,172,176,180,184,196,212,228,240,240,228,212,204,196,188,184,192,196,200,208,216,224,232,236,232,224,220,216,216,216,212,212,216,224,232,232,220,208,192,172,152,128,108,100,100,88,68,32,-8,-48,-80,-104,-120,-124,-124,-128,-132,-132,-128,-128,-132,-136,-156,-180,-204,-224,-248,-264,-268,-264,-244,-220,-196,-184,-184,-192,-204,-216,-224,-228,-232,-224,-208,-188,-164,-148,-144,-152,-164,-188,-208,-224,-232,-236,-232,-220,-208,-200,-200,-204,-212,-216,-212,-200,-180,-156,-136,-124,-116,-120,-132,-144,-156,-156,-148,-128,-108,-88,-84,-96,-116,-148,-172,-180,-180,-180,-176,-180,-192,-208,-224,-232,-228,-224,-216,-196,-172,-148,-132,-124,-128,-132,-140,-148,-152,-148,-148,-156,-164,-168,-172,-168,-156,-148,-144,-144,-156,-164,-164,-164,-164,-156,-152,-160,-168,-172,-180,-188,-176,-160,-148,-144,-148,-164,-192,-220,-248,-268,-276,-272,-268,-256,-244,-236,-228,-216,-208,-204,-196,-192,-188,-184,-184,-168,-140,-108,-80,-60,-44,-32,-28,-28,-36,-52,-72,-100,-120,-136,-128,-108,-92,-92,-100,-116,-136,-156,-164,-160,-144,-128,-112,-100,-92,-84,-76,-68,-60,-52,-44,-32,-24,-8,12,40,64,76,72,44,0,-40,-76,-100,-112,-120,-128,-132,-140,-152,-160,-180,-208,-224,-232,-240,-244
2026-03-17 15:58:40,-244,-248,-252,-252,-252,-244,-224,-200,-188,-184,-184,-196,-216,-232,-240,-240,-232,-212,-192,-172,-156,-140,-120,-96,-68,-44,-36,-52,-96,-140,-176,-216,-252,-272,-284,-292,-296,-284,-260,-220,-180,-132,-76,4,108,240,392,532,656,788,956,1144,1320,1464,1532,1500,1344,1072,736,400,100,-156,-372,-528,-620,-656,-648,-608,-540,-464,-396,-352,-328,-316,-308,-292,-264,-232,-208,-180,-164,-152,-148,-144,-140,-132,-124,-116,-120,-112,-100,-88,-80,-68,-40,0,40,72,80,64,32,0,-20,-16,-4,0,-8,-36,-72,-100,-116,-128,-136,-140,-132,-116,-92,-68,-52,-36,-24,-20,-12,0,8,16,24,32,36,40,48,56,60,64,60,60,64,84,120,164,200,224,240,236,204,164,132,108,100,124,160,200,232,244,236,212,188,168,152,148,148,156,168,180,192,212,248,288,312,308,280,236,192,152,128,112,104,108,116,128,136,136,124,104,84,68,56,48,40,36,32,32,32,36,32,16,0,-12,-28,-48,-76,-104,-128,-136,-136,-148,-168,-192,-208,-212,-204,-192,-172,-144,-120,-108,-104,-112,-116,-112,-108,-104,-104,-120,-160,-204,-244,-276,-292,-288,-280,-268,-260,-248,-228,-212,-196,-172,-152,-144,-144,-152,-168,-172,-152,-116,-76,-48,-44,-56,-80,-112,-152,-172,-172,-168,-164,-152,-144,-132,-124,-116,-104,-84,-72,-76,-84,-96,-116,-124,-108,-80,-40,-8,-4,-28,-68,-116,-160,-180,-180,-176,-164,-156,-148,-148,-148,-160,-176,-184,-164,-128,-68,0,28,24,-4,-68,-132,-164,-156,-136,-120,-112,-108,-116,-132,-148,-164,-180,-200,-224,-248,-256,-260,-260,-252,-236,-220,-196,-160,-124,-96,-84,-88,-100,-104,-92,-68,-60,-68,-72,-56,-28,-8,-12,-44,-100,-176,-244,-300,-328,-336,-320,-296,-252,-196,-132,-88,-72,-88,-116,-140,-148,-148,-144,-128,-108,-92,-72,-60,-56,-52,-44,-36,-28,-16,-8,0,0,8,28,44,64,80,80,72,60,48,36,8,-36,-92,-136,-160,-156,-136,-112,-92,-76,-72,-88,-120,-160,-184,-188,-176,-152,-136,-124,-116,-120,-124,-132,-140,-136,-120,-108,-108,-116,-132,-148,-160,-168,-180,-188,-188,-176,-160,-144,-128,-124,-136,-156,-180,-188,-140,-32,80,148,160,128,40,-80,-192,-260,-264,-228,-180,-124,-60,4,104,236,376,504,620,744,876,1016,1148,1260,1336,1344,1240,1008,696,364,72,-160,-344,-484,-572,-600,-588,-544,-476,-404,-344,-300,-268,-252,-244,-224,-200,-172,-140,-108,-76,-44,-12,0,0,-20,-48,-64,-52,-20,8,28,28,8,-12,-32,-40,-52,-64,-76,-80,-76
2026-03-17 15:58:41,-72,-72,-76,-84,-84,-80,-68,-56,-48,-36,-16,-8,-8,0,28,76,112,128,116,76,36,4,-4,4,36,80,132,172,176,152,112,64,24,0,-16,-28,-20,4,36,68,100,112,104,96,92,92,104,116,120,128,132,132,136,152,176,200,216,208,192,188,204,228,248,260,256,240,212,180,156,128,112,108,112,116,124,128,124,108,92,80,68,56,44,36,40,48,64,92,108,108,92,60,12,-32,-76,-124,-168,-208,-244,-284,-320,-344,-360,-372,-376,-380,-392,-392,-388,-368,-336,-312,-308,-308,-316,-324,-332,-336,-340,-328,-312,-300,-296,-292,-300,-316,-324,-332,-336,-336,-328,-320,-304,-288,-280,-280,-284,-292,-304,-308,-308,-316,-332,-336,-336,-336,-328,-316,-308,-308,-312,-316,-316,-308,-304,-304,-304,-300,-296,-284,-252,-204,-152,-128,-140,-188,-248,-312,-368,-404,-408,-380,-332,-292,-284,-296,-320,-336,-360,-392,-424,-444,-448,-440,-432,-424,-408,-392,-376,-364,-364,-376,-388,-396,-404,-420,-424,-400,-348,-268,-200,-184,-216,-264,-328,-412,-464,-440,-352,-256,-184,-152,-184,-284,-416,-536,-616,-652,-656,-636,-608,-588,-576,-564,-544,-524,-500,-484,-480,-480,-488,-500,-508,-504,-480,-448,-416,-400,-396,-388,-384,-380,-376,-380,-380,-372,-356,-344,-340,-344,-344,-340,-328,-312,-304,-308,-316,-336,-356,-368,-376,-376,-364,-340,-312,-276,-240,-204,-180,-180,-208,-256,-308,-352,-396,-436,-464,-480,-488,-492,-484,-476,-468,-464,-472,-472,-472,-480,-508,-536,-552,-556,-560,-556,-548,-532,-516,-512,-524,-536,-548,-548,-544,-536,-536,-540,-540,-528,-512,-512,-516,-512,-504,-504,-504,-512,-528,-544,-556,-556,-544,-532,-524,-532,-548,-560,-552,-528,-508,-484,-456,-428,-396,-348,-284,-184,-56,80,204,324,444,580,720,832,884,868,764,564,292,8,-240,-456,-632,-768,-864,-924,-944,-932,-896,-840,-784,-732,-684,-632,-580,-536,-508,-492,-488,-488,-488,-492,-492,-484,-468,-456,-448,-440,-440,-444,-448,-452,-444,-436,-428,-428,-416,-400,-396,-400,-400,-400,-408,-420,-424,-428,-424,-412,-396,-368,-328,-296,-280,-276,-296,-324,-348,-368,-388,-400,-408,-408,-392,-368,-340,-320,-312,-324,-336,-344,-344,-340,-332,-312,-288,-256,-236,-232,-228,-228,-228,-236,-236,-224,-196,-168,-152,-144,-148,-148,-136,-92,-16,52,84,88,72,40,-24,-112,-188,-232,-260,-272,-268,-256,-228,-200,-180,-160,-148,-144,-144,-144,-148,-152,-148,-136,-132,-132,-140,-148,-156,-168,-184,-196,-200,-208,-232,-264,-292,-312,-328,-340,-348,-352,-344,-336,-336,-348,-368,-392,-408,-408,-412,-424,-444,-460,-460,-452
2026-03-17 15:58:42,-444,-440,-440,-452,-460,-464,-456,-456,-456,-460,-460,-464,-468,-468,-464,-452,-428,-408,-404,-408,-420,-436,-440,-440,-432,-412,-392,-380,-372,-356,-348,-356,-372,-388,-404,-416,-416,-416,-408,-392,-372,-360,-356,-352,-352,-352,-348,-348,-356,-360,-364,-356,-336,-296,-252,-220,-212,-216,-224,-236,-252,-268,-280,-276,-256,-224,-204,-208,-224,-252,-292,-328,-360,-380,-392,-392,-380,-364,-348,-328,-316,-320,-332,-328,-328,-324,-320,-312,-316,-316,-312,-304,-296,-288,-264,-240,-228,-228,-228,-232,-236,-244,-256,-272,-276,-268,-248,-236,-240,-252,-260,-260,-260,-268,-272,-260,-228,-192,-164,-156,-172,-200,-216,-228,-244,-252,-260,-264,-272,-272,-260,-252,-244,-232,-220,-200,-180,-168,-160,-152,-148,-148,-148,-140,-136,-120,-92,-64,-40,-28,-28,-36,-48,-64,-80,-88,-88,-76,-60,-44,-32,-24,-20,-24,-24,-28,-28,-16,-12,-8,-4,0,0,0,0,-8,-12,-20,-28,-32,-40,-52,-72,-88,-100,-104,-104,-108,-116,-120,-112,-100,-100,-108,-124,-132,-140,-148,-148,-144,-136,-128,-120,-120,-120,-108,-100,-100,-100,-100,-100,-104,-100,-92,-88,-80,-72,-72,-84,-88,-84,-76,-76,-88,-104,-116,-116,-104,-72,-28,16,56,88,112,148,196,268,376,508,644,784,928,1072,1208,1320,1396,1416,1360,1200,936,620,312,64,-124,-264,-360,-416,-444,-444,-408,-364,-312,-252,-180,-128,-92,-60,-20,16,56,96,128,136,124,112,96,80,72,76,96,132,168,188,184,164,140,116,104,100,104,120,132,128,116,104,100,108,124,140,164,188,212,228,244,252,240,232,228,228,228,232,232,240,252,260,272,280,288,304,320,328,328,320,312,304,300,308,332,364,400,436,460,468,456,436,412,400,396,404,416,432,444,460,480,488,492,492,496,504,516,524,520,512,512,520,540,564,572,568,560,552,544,540,536,532,528,532,536,532,540,548,548,532,512,488,468,444,420,408,416,448,492,520,516,484,432,372,300,228,172,132,108,104,112,116,132,156,180,180,156,136,132,136,136,136,136,140,148,168,184,188,188,188,192,188,188,200,248,304,356,376,364,336,284,220,164,132,120,124,148,168,176,180,184,180,180,192,200,208,208,208,216,236,260,276,284,284,280,276,268,264,260,264,268,276,300,348,392,420,436,436,408,368,328,280,236,212,204,204,204,208,220,240,264,276,268,244,228,208,200,204,216,236,264,288,292,296,300,300,292,280,264,256,268,304,356,400,420,412,380
2026-03-17 15:58:43,344,308,272,240,208,192,188,188,192,216,252,284,296,284,256,236,228,220,224,228,232,244,264,288,296,296,292,288,280,280,288,288,284,284,280,284,296,308,324,332,336,328,324,320,320,324,344,372,400,420,416,392,380,380,380,380,376,372,372,380,400,412,428,436,444,444,444,444,440,436,440,452,488,532,568,580,568,528,464,392,344,308,304,344,404,452,468,456,412,340,252,168,112,92,88,88,104,136,160,172,184,196,220,232,224,212,208,204,200,204,212,216,232,244,248,256,252,244,236,236,228,216,212,228,256,280,292,292,284,268,260,268,300,328,356,392,436,484,560,676,812,940,1052,1164,1296,1436,1560,1636,1640,1556,1384,1128,828,548,312,120,-20,-120,-180,-192,-156,-92,-20,48,108,144,168,176,180,196,216,236,260,284,308,320,316,304,284,268,260,260,280,304,332,352,360,364,360,352,352,344,340,344,348,356,368,380,384,376,368,372,380,384,380,384,396,420,440,452,452,440,428,416,404,400,396,392,396,416,448,472,484,488,488,480,464,452,456,476,512,540,560,560,544,528,508,500,500,504,508,520,540,576,600,616,624,624,612,600,584,580,592,616,660,704,740,752,728,696,664,640,620,608,596,596,604,612,612,616,616,600,576,552,524,500,484,476,476,480,476,472,472,460,444,428,428,432,420,404,380,356,332,300,264,240,228,216,204,196,200,200,200,200,188,172,164,160,156,156,168,184,200,204,200,200,192,180,168,160,156,156,156,148,136,132,136,136,152,180,200,212,212,208,196,188,180,176,176,184,188,196,204,212,212,208,204,204,200,196,192,188,180,176,180,192,204,200,188,176,176,192,212,224,224,224,220,220,216,200,180,164,160,168,180,196,220,228,228,212,188,160,140,128,124,132,148,164,180,192,188,176,148,120,96,76,60,52,56,72,92,104,124,140,140,124,104,96,92,108,128,148,152,144,128,116,112,104,92,84,88,84,84,92,96,92,80,64,48,44,56,68,84,96,100,96,100,104,116,144,172,192,204,204,192,180,188,208,232,240,232,212,188,168,140,116,104,96,96,104,116,128,140,156,164,164,156,144,132,124,120,120,128,136,152,156,148,124,92,56,28,16,12,28,48,72,96,108,96,72,36,-4,-48,-84,-116,-140,-148,-136,-120,-108
2026-03-17 15:58:44,-100,-92,-88,-88,-88,-88,-96,-96,-96,-88,-80,-72,-72,-76,-76,-76,-68,-72,-76,-76,-72,-72,-76,-72,-72,-76,-80,-76,-60,-36,0,32,84,152,244,364,492,608,712,828,972,1112,1224,1280,1256,1148,940,644,340,88,-116,-304,-456,-560,-612,-616,-580,-520,-452,-384,-336,-292,-252,-216,-188,-164,-144,-136,-132,-124,-120,-120,-116,-104,-80,-32,16,36,24,-4,-40,-72,-84,-72,-48,-32,-36,-60,-92,-128,-156,-180,-192,-196,-196,-192,-196,-192,-176,-152,-128,-112,-100,-92,-96,-100,-100,-100,-96,-88,-84,-72,-48,-24,-8,0,4,4,-4,-32,-56,-64,-48,-4,56,108,132,128,100,60,16,-24,-68,-100,-108,-104,-80,-48,-12,12,32,36,32,28,16,0,0,0,4,16,36,52,56,56,52,52,52,56,56,72,96,132,176,228,280,312,304,244,140,24,-64,-132,-180,-208,-224,-232,-236,-244,-252,-260,-268,-272,-280,-296,-316,-340,-352,-356,-344,-324,-316,-320,-324,-332,-340,-336,-312,-280,-260,-248,-248,-276,-324,-376,-424,-452,-460,-460,-464,-468,-464,-464,-480,-492,-504,-508,-504,-488,-468,-456,-444,-432,-428,-440,-452,-448,-440,-440,-440,-420,-384,-352,-332,-304,-300,-324,-356,-384,-412,-428,-436,-440,-440,-444,-456,-464,-464,-460,-448,-432,-416,-404,-396,-392,-400,-408,-412,-412,-408,-404,-396,-388,-380,-372,-364,-360,-364,-376,-392,-408,-420,-428,-432,-440,-448,-448,-448,-440,-432,-428,-424,-432,-440,-448,-452,-448,-436,-428,-420,-416,-408,-412,-416,-416,-420,-432,-440,-448,-456,-448,-440,-432,-428,-428,-440,-448,-444,-432,-416,-396,-380,-376,-396,-416,-436,-444,-444,-444,-444,-444,-448,-452,-456,-456,-464,-464,-460,-448,-448,-444,-444,-440,-432,-424,-420,-416,-416,-412,-408,-400,-392,-388,-384,-372,-360,-348,-340,-336,-336,-336,-332,-332,-320,-300,-280,-284,-296,-312,-320,-316,-308,-296,-280,-272,-272,-276,-284,-296,-296,-284,-272,-264,-268,-276,-280,-284,-284,-292,-292,-288,-280,-284,-288,-296,-312,-332,-348,-356,-360,-360,-364,-364,-364,-364,-352,-340,-332,-332,-344,-356,-376,-400,-428,-456,-484,-500,-512,-508,-484,-464,-452,-448,-444,-436,-432,-444,-452,-452,-448,-432,-416,-404,-400,-400,-400,-396,-388,-392,-396,-396,-392,-380,-360,-324,-280,-244,-216,-192,-152,-84,4,120,248,372,480,604,748,888,1000,1064,1056,964,784,512,208,-56,-276,-464,-612,-708,-756,-776,-756,-708,-644,-572,-508,-464,-428,-392,-356,-328,-304,-284,-272,-272,-268,-260,-252,-240,-228,-220,-216,-216,-216,-212,-212,-208,-208,-196,-180,-172,-172,-172,-172,-164,-152,-140,-136,-132
2026-03-17 15:58:45,-132,-132,-124,-116,-112,-104,-96,-96,-100,-100,-100,-96,-96,-92,-88,-80,-60,-44,-28,-16,-8,-4,-4,-8,-24,-40,-44,-40,-40,-32,-24,-12,-4,4,20,32,48,60,64,64,68,76,88,100,108,116,124,132,136,140,148,156,164,172,176,188,208,220,224,228,220,212,200,196,192,192,192,192,192,192,204,212,208,196,184,172,164,156,140,124,108,92,76,64,56,40,32,36,52,80,100,108,92,52,0,-56,-108,-148,-176,-192,-196,-204,-204,-196,-188,-184,-180,-184,-184,-188,-188,-184,-184,-180,-176,-176,-176,-176,-180,-180,-176,-168,-160,-148,-140,-132,-132,-136,-128,-116,-100,-92,-84,-80,-80,-84,-92,-96,-96,-96,-92,-92,-84,-80,-84,-84,-84,-80,-72,-64,-52,-44,-44,-40,-36,-36,-32,-24,-12,0,4,16,20,8,-4,-8,0,12,16,16,8,-4,-32,-64,-100,-120,-124,-116,-100,-92,-92,-84,-76,-64,-56,-52,-48,-56,-56,-56,-52,-52,-44,-36,-32,-32,-32,-24,-16,-8,-4,0,4,8,0,-24,-44,-60,-68,-72,-64,-52,-44,-28,-16,-8,-8,-16,-16,-16,-16,-12,-8,-4,0,0,4,8,8,8,12,20,32,44,48,44,40,40,32,28,24,16,16,20,20,24,36,52,60,60,60,60,60,64,68,68,64,64,60,60,60,60,72,88,108,120,128,128,128,128,144,160,180,204,228,244,264,276,272,260,248,232,212,188,168,148,136,120,108,100,96,96,96,96,88,72,68,68,68,60,56,48,48,52,56,64,72,80,84,88,88,80,68,52,36,36,40,48,60,76,92,108,120,124,124,124,116,100,84,64,48,28,16,12,8,8,4,4,0,0,8,24,56,100,156,216,272,316,372,444,540,648,760,864,984,1140,1308,1456,1560,1600,1560,1420,1168,852,540,268,40,-140,-256,-308,-320,-304,-260,-200,-140,-88,-52,-36,-24,0,28,64,96,124,140,148,152,148,140,136,132,128,128,136,152,172,196,212,228,244,244,232,224,220,212,204,200,208,220,236,248,264,276,284,296,308,320,332,340,344,336,328,320,312,296,280,268,260,256,256,264,276,288,300,308,316,324,332,336,336,344,352,364,376,388,396,400,400,392,392,400,408,420,436,444,448,456,464,468,476,484,496,512,524,536,548,552,556,556,564,568,556,540,536,528,516,508,496,484,476,468,460,460,456,444,436,432,432,432,424,420,404,392,384,376,368,364,356,348,332
