2026-03-16 10:58:22,-692,-648,-612,-568,-516,-476,-444,-408,-384,-364,-336,-308,-288,-264,-228,-192,-164,-128,-96,-76,-52,-20,4,44,96,140,176,224,272,316,356,392,416,444,484,512,540,572,592,596,596,596,588,584,596,620,672,740,804,884,1004,1136,1284,1448,1600,1712,1808,1884,1884,1792,1608,1304,912,496,96,-236,-412,-416,-320,-180,-8,168,320,468,612,728,832,920,972,996,1016,1032,1032,1036,1048,1040,1028,1024,1012,992,976,972,960,960,960,948,928,916,904,888,880,880,876,880,888,876,864,864,856,832,816,808,804,808,816,812,808,812,808,792,788,788,780,788,804,808,816,828,832,824,828,840,844,860,880,880,880,896,912,924,944,960,960,956,956,952,948,964,976,976,976,984,980,984,988,968,944,932,908,880,856,828,796,776,744,692,632,584,528,460,400,336,268,224,192,140,88,44,0,-68,-140,-204,-268,-308,-332,-368,-396,-412,-432,-472,-508,-540,-576,-604,-624,-648,-676,-692,-708,-728,-736,-748,-768,-780,-784,-800,-820,-836,-852,-872,-884,-896,-916,-924,-928,-936,-940,-940,-960,-992,-1016,-1036,-1060,-1072,-1084,-1108,-1124,-1132,-1144,-1172,-1188,-1204,-1224,-1240,-1252,-1276,-1296,-1300,-1308,-1320,-1328,-1336,-1352,-1360,-1360,-1376,-1392,-1392,-1392,-1396,-1400,-1396,-1396,-1396,-1392,-1388,-1380,-1368,-1368,-1376,-1380,-1384,-1400,-1400,-1392,-1384,-1360,-1316,-1288,-1272,-1252,-1232,-1224,-1212,-1196,-1192,-1184,-1172,-1164,-1160,-1148,-1132,-1128,-1116,-1092,-1084,-1080,-1080,-1088,-1104,-1100,-1088,-1076,-1056,-1040,-1040,-1040,-1024,-1016,-1016,-996,-976,-968,-948,-920,-904,-888,-864,-852,-840,-820,-792,-776,-752,-724,-704,-680,-644,-620,-612,-612,-608,-604,-580,-540,-488,-420,-340,-260,-160,-28,128,308,484,620,724,808,844,796,648,388,20,-400,-824,-1200,-1464,-1556,-1500,-1380,-1224,-1044,-872,-728,-588,-448,-340,-256,-196,-160,-136,-104,-76,-68,-64,-56,-64,-72,-68,-76,-84,-80,-72,-76,-76,-76,-92,-100,-96,-92,-96,-92,-80,-64,-44,-24,-24,-32,-28,-32,-48,-44,-36,-28,-16,-4,-4,0,8,8,-4,-4,0,8,28,44,48,52,64,68,72,92,112,128,156,184,196,216,236,244,244,264,296,320,344,368,376,388,412,420,424,436,448,452,460,464,448,436,432,412,380,360,340,320,300,280,236,176,120,56,-4,-52,-96,-152,-200,-252,-316,-384,-444,-512,-580,-628,-668,-708,-744,-780,-832,-868,-892,-924,-956,-972,-980,-996,-1004,-1004,-1020,-1036,-1040,-1048,-1056,-1052,-1044,-1048,-1044,-1044,-1056,-1064,-1064,-1068,-1072,-1064,-1056,-1060,-1052,-1040,-1048,-1060,-1060,-1072,-1088
2026-03-16 10:58:23,-1088,-1088,-1096,-1092,-1084,-1084,-1080,-1076,-1088,-1104,-1108,-1100,-1096,-1084,-1068,-1060,-1056,-1044,-1052,-1068,-1072,-1072,-1080,-1076,-1076,-1092,-1104,-1100,-1104,-1120,-1128,-1132,-1136,-1140,-1140,-1152,-1160,-1168,-1184,-1208,-1228,-1248,-1272,-1288,-1292,-1308,-1320,-1328,-1352,-1400,-1436,-1464,-1500,-1528,-1548,-1576,-1604,-1624,-1660,-1696,-1716,-1744,-1784,-1816,-1848,-1888,-1932,-1960,-1992,-2024,-2032,-2032,-2028,-2004,-1980,-1984,-1988,-1976,-1964,-1956,-1936,-1916,-1920,-1920,-1924,-1940,-1964,-1984,-2012,-2036,-2048,-2056,-2076,-2092,-2100,-2124,-2144,-2152,-2140,-2124,-2120,-2128,-2144,-2160,-2168,-2160,-2136,-2104,-2056,-1964,-1828,-1672,-1496,-1328,-1200,-1100,-1024,-992,-1040,-1180,-1428,-1780,-2184,-2600,-2988,-3268,-3380,-3356,-3264,-3132,-2960,-2764,-2564,-2360,-2176,-2036,-1940,-1880,-1848,-1820,-1768,-1700,-1628,-1548,-1472,-1420,-1384,-1356,-1332,-1288,-1212,-1120,-1028,-936,-852,-796,-740,-684,-636,-588,-524,-452,-380,-288,-204,-148,-92,-28,32,96,180,272,356,444,520,584,656,728,788,840,904,972,1032,1100,1156,1192,1224,1256,1272,1280,1300,1328,1364,1408,1444,1468,1496,1516,1524,1536,1564,1592,1616,1648,1672,1676,1676,1684,1676,1672,1688,1696,1696,1708,1716,1708,1692,1672,1648,1616,1600,1580,1560,1540,1512,1464,1416,1372,1320,1264,1216,1164,1096,1040,984,908,844,800,744,680,632,584,536,496,456,416,384,364,332,308,300,284,268,252,236,204,188,184,172,160,160,152,136,132,132,120,112,112,96,76,72,68,68,76,88,88,92,104,104,104,112,116,116,124,136,124,124,132,132,128,132,128,120,120,116,100,92,100,100,96,104,100,88,88,92,80,80,84,80,72,76,72,64,64,64,60,68,80,80,84,96,100,96,104,104,96,96,96,84,76,88,92,80,72,60,32,16,16,16,12,20,20,12,12,24,24,28,40,36,16,4,4,0,0,0,-16,-24,-24,-36,-48,-48,-56,-72,-72,-72,-84,-88,-84,-84,-84,-64,-48,-36,-16,-12,-28,-40,-40,-44,-48,-40,-44,-60,-76,-88,-116,-136,-144,-148,-128,-84,-44,8,120,272,440,644,844,992,1120,1244,1312,1292,1184,956,604,200,-224,-672,-1024,-1192,-1208,-1136,-1016,-876,-720,-540,-356,-212,-96,-12,20,24,32,44,60,96,136,160,172,176,160,136,124,124,116,128,156,176,184,180,172,156,152,156,164,188,224,248,256,264,252,232,232,232,228,236,252,256,260,268,264,256,256,268,276,308,344,368,380,392,396,396,412,424,440,468,504,524,540,564,572,580,600,612,608,616,640,660,676,696,704,708,716,724,720,724,740,740,728
2026-03-16 10:58:24,724,716,704,700,688,668,656,648,624,592,556,508,448,396,332,256,196,144,92,44,0,-44,-100,-144,-176,-212,-244,-268,-304,-336,-360,-384,-412,-428,-448,-476,-500,-508,-520,-532,-528,-524,-524,-520,-516,-528,-524,-516,-516,-520,-524,-540,-548,-532,-516,-512,-504,-484,-484,-484,-476,-472,-476,-464,-456,-464,-460,-448,-444,-440,-424,-424,-432,-424,-416,-412,-408,-396,-400,-392,-372,-364,-368,-364,-360,-368,-364,-352,-352,-348,-332,-324,-320,-312,-312,-324,-328,-320,-320,-320,-304,-300,-300,-288,-276,-272,-252,-236,-236,-232,-216,-212,-208,-204,-208,-224,-228,-224,-224,-224,-220,-224,-236,-236,-236,-240,-232,-220,-212,-208,-200,-196,-196,-184,-180,-192,-196,-192,-200,-208,-208,-220,-232,-224,-224,-236,-236,-236,-244,-252,-248,-252,-256,-248,-244,-252,-248,-236,-236,-228,-216,-216,-212,-200,-188,-192,-188,-176,-180,-184,-180,-184,-204,-216,-228,-236,-212,-172,-124,-68,16,132,284,476,696,904,1076,1224,1364,1468,1488,1380,1140,796,376,-88,-560,-944,-1152,-1188,-1116,-1016,-888,-728,-564,-408,-248,-116,-36,0,12,4,8,40,80,120,164,196,192,180,176,164,156,172,196,228,260,280,276,260,256,248,240,252,276,300,328,356,364,364,368,360,356,372,392,408,444,480,492,496,504,508,512,528,540,548,572,600,616,628,644,652,660,692,728,752,784,812,832,848,872,892,916,956,988,1012,1044,1072,1080,1092,1116,1128,1136,1152,1164,1164,1180,1200,1200,1188,1180,1164,1144,1140,1128,1100,1080,1060,1024,980,940,884,828,784,732,676,636,596,544,492,456,408,364,332,288,240,212,188,152,128,116,88,56,36,20,12,12,8,-4,-16,-16,-32,-40,-40,-40,-48,-40,-36,-40,-44,-36,-40,-36,-24,-24,-28,-12,0,-8,-8,8,20,36,52,52,40,44,48,40,32,36,32,28,32,32,24,20,24,20,24,32,28,24,28,20,4,4,8,4,4,12,8,8,16,16,16,32,56,64,76,92,96,100,112,112,100,100,108,104,108,124,120,116,128,124,108,104,100,80,64,64,52,40,48,52,52,60,68,64,60,56,40,28,28,20,0,-8,-16,-32,-44,-56,-72,-80,-76,-92,-116,-116,-116,-124,-124,-120,-124,-132,-128,-128,-136,-136,-144,-180,-212,-228,-244,-252,-236,-228,-228,-220,-216,-228,-232,-232,-244,-244,-204,-156,-112,-28,96,244,424,628,804,936,1068,1168,1180,1120,948,632,224,-208,-664,-1072,-1328,-1428,-1416,-1312,-1176,-1028,-860,-676,-516,-384,-268,-204,-176,-152,-132,-120,-92
2026-03-16 10:58:25,-52,-28,-16,-16,-40,-76,-92,-100,-100,-76,-40,-20,-12,-4,-8,-28,-44,-56,-56,-36,-4,12,24,32,16,-4,-8,-8,-4,8,36,60,76,96,100,96,104,120,128,144,168,180,192,208,220,228,248,280,308,336,376,404,428,444,440,440,456,476,488,508,544,568,592,616,624,624,640,660,668,680,692,696,708,724,716,692,684,680,668,656,644,612,588,568,528,476,432,380,312,252,200,140,80,32,-16,-84,-132,-176,-224,-264,-292,-332,-368,-392,-420,-460,-484,-496,-512,-520,-524,-544,-560,-568,-580,-596,-604,-616,-636,-644,-640,-640,-636,-628,-628,-636,-632,-628,-632,-628,-616,-616,-616,-612,-624,-632,-628,-620,-624,-616,-604,-604,-596,-580,-580,-580,-568,-560,-556,-552,-544,-544,-540,-536,-536,-536,-520,-512,-516,-516,-500,-500,-500,-484,-480,-484,-484,-480,-488,-484,-472,-460,-452,-440,-432,-432,-424,-416,-420,-420,-416,-428,-424,-416,-420,-432,-432,-432,-440,-444,-448,-460,-464,-456,-456,-460,-456,-452,-460,-456,-452,-468,-476,-476,-476,-484,-488,-488,-496,-500,-500,-512,-516,-520,-536,-548,-548,-552,-572,-584,-584,-588,-588,-580,-584,-592,-576,-560,-556,-552,-544,-548,-544,-536,-540,-548,-540,-536,-548,-556,-556,-572,-580,-576,-552,-512,-464,-408,-328,-192,-24,164,352,512,644,760,844,844,732,496,144,-276,-728,-1168,-1528,-1716,-1732,-1660,-1544,-1388,-1204,-1032,-856,-688,-560,-468,-404,-384,-388,-384,-360,-328,-284,-236,-216,-220,-236,-256,-288,-292,-276,-256,-228,-200,-196,-208,-220,-232,-248,-252,-232,-212,-180,-148,-140,-144,-140,-148,-160,-148,-124,-108,-84,-56,-44,-48,-44,-44,-40,-24,0,16,44,72,84,84,96,108,116,132,156,176,204,244,264,280,308,332,352,380,416,452,492,532,544,552,572,580,584,596,608,604,612,628,624,624,636,640,632,632,632,620,600,576,536,492,456,408,344,284,232,176,132,92,36,-16,-60,-108,-168,-204,-232,-268,-300,-324,-360,-392,-412,-440,-472,-496,-512,-536,-548,-552,-564,-580,-576,-580,-592,-592,-592,-600,-600,-592,-600,-600,-584,-576,-584,-588,-580,-576,-572,-568,-572,-576,-564,-552,-544,-532,-516,-512,-508,-496,-496,-504,-492,-480,-480,-472,-464,-468,-472,-468,-468,-476,-472,-472,-476,-472,-468,-476,-476,-468,-476,-484,-476,-468,-464,-448,-436,-436,-428,-412,-412,-408,-392,-376,-372,-364,-356,-356,-352,-340,-340,-344,-340,-340,-352,-352,-344,-352,-360,-364,-384,-400,-404,-408,-412,-408,-404,-412,-404,-384,-384,-388,-380,-372,-376,-376,-380,-392,-392,-380,-384,-388,-380,-384,-400,-408
2026-03-16 10:58:26,-412,-416,-408,-404,-412,-420,-412,-416,-428,-428,-420,-424,-424,-412,-416,-424,-420,-420,-424,-420,-416,-432,-436,-444,-468,-496,-504,-504,-496,-468,-420,-368,-288,-160,-8,176,404,616,776,936,1084,1172,1164,1040,760,380,-36,-512,-1008,-1376,-1556,-1592,-1536,-1424,-1292,-1136,-952,-780,-636,-516,-428,-396,-384,-384,-388,-368,-328,-284,-252,-232,-232,-252,-268,-272,-280,-264,-228,-196,-180,-172,-168,-180,-188,-188,-196,-188,-152,-116,-96,-84,-84,-100,-112,-112,-120,-104,-72,-48,-28,-4,4,-4,-8,0,0,8,40,72,92,124,144,144,152,172,188,208,240,276,308,344,376,396,424,448,456,468,500,528,556,592,624,640,652,668,668,668,688,704,704,712,712,696,688,684,668,652,644,628,600,572,544,500,460,420,364,308,264,220,168,128,80,24,-20,-64,-116,-160,-196,-232,-276,-312,-340,-376,-392,-404,-428,-448,-448,-456,-480,-492,-496,-504,-512,-512,-524,-524,-512,-512,-520,-524,-532,-548,-556,-552,-556,-556,-536,-524,-520,-512,-500,-496,-484,-472,-476,-476,-468,-468,-472,-464,-456,-456,-448,-444,-448,-452,-440,-432,-436,-432,-428,-432,-432,-424,-432,-428,-416,-412,-412,-408,-404,-408,-404,-396,-400,-392,-376,-364,-364,-348,-336,-336,-328,-320,-324,-324,-312,-304,-308,-304,-300,-304,-308,-312,-336,-352,-352,-360,-372,-368,-364,-368,-368,-372,-376,-376,-364,-364,-372,-368,-364,-368,-376,-380,-388,-396,-400,-412,-428,-428,-436,-452,-452,-452,-464,-460,-448,-440,-436,-424,-412,-412,-404,-400,-412,-416,-408,-404,-400,-392,-392,-404,-404,-404,-420,-440,-452,-476,-500,-492,-460,-420,-364,-276,-160,0,212,436,640,824,1004,1160,1256,1256,1120,852,496,64,-424,-908,-1272,-1448,-1460,-1388,-1288,-1148,-976,-800,-632,-472,-352,-288,-264,-264,-280,-276,-240,-200,-160,-124,-108,-116,-124,-140,-164,-168,-140,-116,-92,-60,-40,-44,-52,-60,-84,-84,-64,-44,-24,0,16,20,24,28,20,24,48,64,76,100,116,120,124,124,116,124,148,168,188,224,244,248,260,272,276,296,336,368,392,420,448,464,488,516,524,544,588,628,660,700,728,732,740,748,744,752,768,776,780,796,800,788,780,772,752,732,720,700,676,660,636,600,568,532,476,420,372,320,264,224,180,128,84,44,0,-40,-68,-100,-136,-164,-192,-224,-248,-268,-304,-332,-344,-360,-380,-380,-388,-404,-404,-404,-416,-420,-412,-408,-416,-416,-412,-416,-420,-424,-436,-432,-416,-412,-416,-408,-400,-404,-400,-392,-396,-392,-380,-372,-368,-356,-352,-352,-344,-340,-352,-348,-332,-332,-336,-328
2026-03-16 10:58:27,-328,-332,-328,-324,-328,-324,-316,-316,-320,-316,-316,-328,-324,-316,-320,-320,-308,-308,-308,-304,-304,-312,-312,-312,-320,-320,-304,-296,-284,-264,-252,-256,-244,-232,-232,-232,-228,-236,-244,-240,-236,-240,-232,-224,-232,-236,-232,-244,-256,-260,-264,-268,-268,-264,-264,-260,-256,-260,-268,-264,-264,-268,-264,-272,-284,-288,-280,-280,-288,-280,-284,-296,-296,-300,-316,-320,-312,-312,-320,-316,-308,-308,-300,-292,-292,-288,-272,-272,-272,-268,-264,-268,-264,-264,-284,-300,-312,-328,-336,-328,-300,-260,-204,-132,-36,104,276,468,672,848,992,1124,1228,1244,1140,924,588,152,-316,-776,-1152,-1372,-1432,-1400,-1324,-1188,-1012,-836,-668,-500,-364,-272,-212,-192,-192,-176,-136,-104,-72,-40,-28,-32,-40,-64,-88,-84,-60,-32,-4,20,32,28,24,16,-4,-12,0,12,36,76,96,96,96,92,76,80,100,116,136,168,188,196,208,216,216,228,252,276,300,328,340,348,364,372,376,388,416,444,472,504,524,536,560,576,580,600,632,656,676,708,736,748,768,780,780,796,820,836,848,868,880,876,872,864,844,840,840,820,800,784,760,720,688,644,588,536,488,436,388,352,300,248,204,148,88,44,8,-28,-64,-84,-116,-156,-180,-204,-240,-264,-276,-296,-316,-328,-344,-360,-360,-368,-376,-376,-368,-376,-380,-376,-376,-380,-380,-376,-388,-392,-384,-380,-380,-368,-364,-368,-364,-360,-372,-376,-364,-368,-368,-360,-356,-352,-340,-336,-340,-332,-316,-316,-308,-296,-296,-304,-292,-284,-288,-276,-256,-256,-260,-248,-248,-248,-236,-228,-232,-224,-216,-212,-204,-192,-192,-196,-192,-188,-196,-192,-180,-184,-188,-184,-184,-196,-200,-208,-232,-244,-244,-252,-256,-240,-236,-240,-228,-220,-232,-232,-228,-240,-248,-248,-252,-268,-276,-288,-308,-312,-308,-320,-328,-324,-320,-324,-320,-320,-328,-328,-320,-320,-324,-320,-320,-328,-328,-332,-340,-336,-332,-344,-348,-340,-336,-340,-336,-348,-372,-380,-384,-388,-364,-312,-268,-220,-128,-8,128,304,480,608,720,840,904,884,784,556,200,-204,-620,-1016,-1312,-1452,-1472,-1420,-1308,-1172,-1020,-844,-664,-516,-392,-296,-248,-232,-212,-200,-184,-144,-100,-84,-80,-72,-80,-92,-84,-72,-64,-40,-4,4,8,16,8,0,0,0,4,28,60,80,96,104,92,76,76,80,92,120,148,164,172,184,176,168,176,188,200,236,276,292,308,328,336,344,364,372,380,412,452,476,496,516,532,548,584,612,636,664,696,716,740,768,780,784,800,816,816,824,840,848,852,864,860,844,836,816,792,780,768,736,700,672
2026-03-16 10:58:28,624,572,532,480,424,380,344,296,244,200,144,88,44,0,-48,-72,-96,-132,-168,-188,-216,-236,-248,-268,-292,-308,-320,-344,-360,-360,-372,-380,-380,-380,-392,-392,-392,-400,-404,-392,-384,-384,-380,-388,-396,-392,-380,-380,-372,-364,-360,-364,-356,-352,-356,-344,-336,-340,-344,-332,-328,-328,-316,-312,-316,-304,-296,-296,-296,-288,-288,-292,-284,-280,-280,-272,-264,-264,-264,-252,-248,-244,-228,-216,-216,-204,-188,-184,-172,-164,-168,-176,-172,-172,-180,-176,-168,-176,-184,-184,-192,-200,-204,-212,-220,-212,-204,-212,-216,-204,-208,-212,-212,-220,-236,-232,-220,-228,-236,-240,-252,-260,-256,-260,-272,-272,-272,-284,-292,-288,-296,-296,-284,-284,-296,-296,-288,-288,-288,-284,-284,-288,-280,-288,-300,-292,-276,-272,-272,-272,-300,-336,-360,-376,-388,-368,-324,-280,-228,-140,-24,124,316,516,688,840,984,1092,1124,1072,892,584,192,-244,-700,-1076,-1308,-1396,-1372,-1272,-1140,-980,-796,-620,-464,-320,-216,-164,-144,-132,-124,-112,-84,-56,-40,-16,-4,-20,-32,-32,-28,-16,8,36,56,76,80,56,40,40,40,48,68,84,96,120,128,112,100,96,88,96,132,160,168,184,200,200,204,212,216,228,256,284,300,328,352,360,372,396,404,412,436,460,484,512,540,552,568,596,620,648,684,704,724,752,776,784,788,804,808,820,840,848,852,864,868,860,852,848,836,828,824,800,764,744,724,680,632,592,536,472,424,376,324,276,224,164,108,60,8,-36,-76,-116,-152,-172,-196,-236,-272,-288,-308,-320,-328,-348,-368,-372,-372,-388,-388,-372,-372,-376,-372,-376,-384,-372,-356,-352,-352,-340,-344,-344,-332,-328,-336,-328,-320,-320,-316,-312,-316,-308,-288,-280,-288,-284,-276,-284,-276,-264,-260,-256,-248,-252,-260,-252,-248,-248,-244,-232,-232,-232,-220,-220,-216,-200,-192,-196,-188,-176,-168,-156,-136,-132,-132,-112,-96,-100,-104,-104,-116,-128,-128,-132,-140,-136,-136,-144,-148,-144,-148,-156,-156,-164,-180,-180,-172,-180,-180,-176,-184,-192,-184,-196,-212,-216,-228,-248,-260,-256,-264,-268,-256,-256,-264,-264,-264,-272,-272,-268,-276,-276,-260,-260,-268,-260,-252,-260,-264,-252,-252,-252,-252,-268,-284,-292,-304,-328,-344,-352,-348,-320,-272,-216,-132,8,188,400,624,824,992,1156,1296,1332,1244,1032,700,284,-164,-636,-1052,-1292,-1348,-1320,-1240,-1104,-940,-780,-608,-436,-304,-212,-156,-152,-164,-160,-144,-120,-80,-40,-24,-20,-28,-60,-92,-92,-68,-44,-8,20,36,32,24,0,-16,-12,0,16,44,72,72,72,76,76,68,72,80,96,124,152
2026-03-16 10:58:29,160,164,176,172,168,184,204,220,248,276,292,308,328,332,336,360,384,408,444,480,496,516,548,552,556,584,616,640,664,688,708,724,740,740,736,756,780,792,804,824,836,836,824,796,772,776,776,756,744,732,704,676,648,600,544,500,448,388,340,296,240,184,136,84,32,4,-24,-68,-100,-128,-168,-200,-220,-252,-280,-296,-304,-316,-324,-332,-356,-372,-372,-384,-396,-392,-392,-404,-400,-392,-396,-392,-376,-376,-380,-372,-368,-368,-364,-352,-352,-352,-348,-352,-364,-360,-348,-348,-344,-332,-328,-316,-292,-284,-280,-276,-280,-292,-280,-264,-264,-264,-248,-244,-244,-232,-228,-228,-232,-236,-228,-204,-168,-156,-156,-144,-128,-116,-100,-92,-108,-112,-108,-116,-136,-136,-136,-144,-144,-140,-152,-152,-144,-156,-168,-164,-164,-180,-172,-164,-164,-152,-140,-140,-144,-148,-160,-168,-160,-164,-196,-224,-240,-252,-268,-264,-260,-276,-284,-288,-296,-296,-288,-292,-288,-272,-268,-268,-260,-260,-268,-264,-260,-276,-296,-288,-272,-276,-296,-316,-344,-372,-392,-424,-432,-400,-360,-304,-200,-52,124,344,576,764,940,1140,1284,1328,1260,1060,732,340,-96,-580,-996,-1220,-1284,-1256,-1172,-1056,-916,-760,-596,-456,-340,-256,-220,-224,-228,-216,-204,-176,-132,-104,-88,-72,-76,-96,-96,-88,-80,-56,-16,0,8,20,20,8,0,4,8,24,52,72,80,88,80,60,52,60,72,104,144,168,192,220,228,220,228,248,260,296,340,364,388,424,444,452,468,476,468,476,504,524,552,584,596,600,612,628,648,684,720,736,748,772,780,776,780,784,784,796,820,824,820,828,828,824,832,836,824,804,784,752,716,688,660,620,580,536,472,416,368,312,256,212,156,96,52,12,-28,-60,-80,-112,-140,-156,-180,-212,-224,-232,-252,-268,-276,-292,-304,-308,-320,-332,-336,-332,-332,-324,-316,-324,-340,-340,-340,-348,-336,-320,-320,-324,-324,-336,-344,-328,-316,-316,-308,-296,-296,-288,-276,-280,-280,-272,-276,-288,-280,-276,-288,-288,-276,-268,-260,-244,-236,-232,-224,-224,-228,-220,-208,-212,-216,-208,-208,-212,-200,-184,-180,-164,-148,-148,-144,-136,-140,-152,-152,-152,-160,-160,-152,-156,-160,-152,-152,-160,-160,-156,-160,-152,-144,-152,-164,-160,-164,-184,-196,-208,-228,-232,-232,-252,-264,-264,-280,-300,-304,-304,-312,-312,-308,-320,-328,-316,-308,-308,-300,-292,-300,-304,-300,-308,-316,-308,-300,-304,-300,-300,-308,-304,-300,-308,-308,-300,-308,-336,-356,-372,-396,-396,-368,-344,-308,-228,-116,20,204,416,608,784,948,1068,1128,1108,968,688,324,-96
2026-03-16 10:58:30,-564,-992,-1280,-1412,-1416,-1328,-1208,-1064,-888,-712,-548,-400,-280,-216,-188,-168,-156,-148,-116,-76,-44,-16,0,-16,-36,-40,-40,-32,-8,20,40,52,60,40,16,0,-16,-28,-12,16,44,76,96,84,72,80,72,68,84,108,132,160,188,188,184,192,200,212,240,268,284,308,332,340,348,368,376,384,408,436,456,484,516,524,540,568,592,608,636,668,692,716,732,724,724,744,756,760,768,776,780,792,792,776,772,776,772,760,756,748,724,708,684,644,608,576,528,476,432,388,332,288,244,184,128,92,52,4,-24,-52,-92,-124,-152,-192,-220,-236,-256,-272,-276,-280,-300,-308,-316,-340,-352,-348,-356,-372,-372,-376,-384,-376,-360,-364,-364,-356,-352,-352,-344,-340,-344,-340,-340,-352,-348,-328,-324,-324,-312,-308,-312,-304,-296,-300,-292,-276,-280,-284,-272,-264,-264,-240,-220,-220,-216,-208,-204,-200,-184,-176,-180,-176,-168,-180,-184,-180,-184,-200,-200,-204,-220,-228,-228,-236,-240,-232,-228,-228,-216,-216,-224,-220,-212,-220,-228,-232,-244,-256,-256,-264,-280,-288,-296,-324,-336,-336,-348,-364,-360,-356,-356,-348,-344,-352,-348,-336,-336,-340,-328,-320,-324,-324,-320,-324,-312,-292,-288,-284,-276,-284,-316,-348,-384,-424,-444,-424,-408,-392,-336,-240,-108,68,268,432,580,744,884,952,932,784,500,144,-256,-696,-1084,-1328,-1420,-1400,-1292,-1148,-988,-800,-616,-456,-320,-204,-152,-140,-128,-128,-124,-88,-40,-8,16,36,24,-4,-28,-48,-52,-28,0,12,28,40,32,16,16,12,12,28,52,60,68,76,68,60,64,68,72,92,120,140,160,184,180,168,176,188,196,216,244,268,296,324,336,336,352,368,388,428,452,460,488,528,548,560,584,600,612,640,672,692,716,748,768,780,800,812,808,812,816,808,800,800,784,764,760,748,732,724,712,680,648,620,576,528,488,444,392,360,324,268,220,184,136,80,40,-4,-56,-88,-120,-156,-176,-196,-224,-256,-272,-296,-320,-328,-336,-344,-340,-328,-328,-328,-320,-324,-344,-344,-348,-360,-364,-360,-368,-372,-364,-364,-372,-368,-364,-372,-368,-360,-364,-364,-348,-340,-332,-320,-312,-316,-312,-296,-292,-292,-276,-264,-256,-236,-220,-212,-196,-172,-172,-176,-168,-156,-152,-140,-136,-152,-160,-164,-176,-188,-188,-200,-216,-216,-216,-220,-220,-212,-216,-220,-212,-208,-216,-216,-216,-224,-220,-212,-220,-236,-240,-252,-268,-272,-276,-296,-304,-304,-312,-316,-308,-312,-316,-312,-308,-324,-328,-320,-328,-340,-332,-328,-332,-324,-320,-328,-324,-312,-320,-332,-336,-360
2026-03-16 10:58:31,-388,-404,-424,-440,-428,-396,-372,-336,-256,-148,-16,152,320,440,552,668,724,712,620,396,48,-344,-752,-1136,-1396,-1504,-1520,-1456,-1328,-1168,-992,-804,-632,-484,-356,-264,-224,-204,-176,-156,-132,-88,-48,-32,-20,-12,-28,-52,-60,-56,-40,-8,20,28,36,44,32,20,20,24,36,64,84,84,88,104,108,104,112,120,128,156,180,188,192,204,204,204,216,228,244,280,308,320,344,368,372,372,388,404,420,456,480,492,516,540,556,568,588,604,624,656,676,688,712,740,744,748,756,764,764,780,788,780,788,792,780,768,768,752,728,716,696,660,636,608,568,516,476,424,372,332,284,224,176,132,76,28,-4,-44,-84,-112,-144,-184,-208,-224,-248,-268,-284,-304,-328,-336,-348,-360,-360,-356,-360,-368,-364,-368,-380,-372,-372,-380,-376,-368,-372,-376,-372,-380,-388,-380,-376,-380,-372,-364,-372,-372,-364,-364,-364,-352,-340,-340,-332,-320,-324,-320,-304,-288,-280,-264,-256,-260,-252,-240,-236,-236,-224,-220,-216,-204,-200,-208,-204,-204,-212,-220,-220,-228,-240,-232,-232,-240,-240,-232,-240,-244,-236,-236,-248,-252,-256,-264,-264,-260,-272,-284,-280,-284,-280,-208,-336,-372,-384,-412,-496,-388,-372,-360,-356,-344,-348,-364,-364,-364,-372,-372,-360,-352,-352,-340,-344,-364,-368,-368,-376,-388,-400,-432,-468,-488,-516,-536,-520,-496,-484,-420,-292,-136,40,236,396,524,656,756,772,708,536,232,-152,-556,-964,-1300,-1480,-1516,-1480,-1380,-1228,-1060,-888,-704,-544,-424,-324,-264,-244,-232,-216,-192,-160,-108,-72,-60,-56,-72,-100,-120,-112,-104,-88,-56,-36,-32,-24,-28,-48,-56,-44,-36,-20,16,40,44,48,48,32,32,44,52,64,96,116,128,144,160,156,160,180,188,200,232,252,260,276,288,292,308,332,352,368,400,420,436,460,484,488,500,528,552,572,600,620,628,648,668,668,672,684,692,696,716,724,716,712,708,692,680,676,660,640,628,604,564,536,500,448,396,352,304,252,212,160,104,72,40,-4,-48,-76,-120,-152,-172,-196,-236,-260,-284,-316,-336,-348,-368,-384,-388,-392,-404,-400,-400,-408,-416,-416,-424,-424,-412,-408,-416,-416,-416,-428,-424,-412,-416,-416,-408,-408,-412,-404,-396,-400,-396,-388,-388,-384,-372,-364,-372,-364,-348,-348,-344,-332,-336,-336,-320,-308,-304,-288,-268,-268,-264,-252,-252,-252,-252,-256,-268,-260,-244,-244,-244,-236,-244,-252,-252,-260,-272,-276,-272,-280,-280,-272,-280,-284,-276,-284,-296,-304,-304,-316,-320,-320,-332,-340,-336,-344,-360,-364,-368,-380,-388,-380,-384
2026-03-16 10:58:32,-388,-380,-384,-388,-380,-368,-372,-368,-360,-368,-376,-372,-376,-392,-388,-380,-384,-384,-376,-388,-404,-416,-448,-492,-512,-508,-500,-484,-452,-388,-272,-112,64,252,432,592,740,856,912,864,700,420,36,-388,-808,-1172,-1404,-1476,-1436,-1340,-1204,-1036,-868,-712,-548,-408,-316,-268,-248,-248,-240,-212,-176,-144,-108,-80,-84,-92,-104,-128,-136,-120,-100,-80,-48,-20,-20,-28,-36,-52,-56,-40,-28,-16,8,36,40,44,44,36,36,56,72,88,112,132,136,144,156,152,160,184,200,216,248,276,288,296,304,304,312,336,360,384,420,452,468,484,504,516,532,560,580,600,628,652,660,668,676,676,680,692,692,692,704,708,692,684,680,668,652,652,636,616,604,588,556,520,484,436,388,352,304,248,204,168,116,76,44,0,-36,-64,-104,-140,-160,-176,-204,-228,-244,-268,-284,-292,-312,-328,-328,-324,-332,-328,-324,-332,-340,-336,-344,-360,-356,-348,-360,-360,-356,-360,-360,-344,-344,-352,-344,-336,-336,-328,-316,-320,-316,-308,-304,-308,-296,-288,-292,-288,-284,-292,-292,-284,-280,-284,-272,-264,-268,-268,-260,-260,-256,-240,-232,-228,-212,-196,-188,-180,-172,-172,-172,-160,-156,-160,-156,-152,-156,-152,-148,-160,-172,-176,-192,-212,-208,-200,-200,-196,-192,-196,-192,-180,-184,-196,-196,-196,-212,-216,-216,-224,-232,-232,-244,-256,-256,-260,-272,-276,-272,-284,-288,-280,-280,-288,-280,-280,-292,-284,-268,-268,-264,-252,-256,-264,-260,-252,-256,-256,-248,-248,-260,-276,-312,-336,-348,-352,-344,-312,-264,-208,-104,52,240,452,672,860,1016,1168,1268,1264,1156,916,544,108,-340,-792,-1144,-1304,-1308,-1244,-1128,-976,-820,-652,-472,-320,-208,-132,-96,-96,-100,-84,-68,-40,0,40,52,52,44,16,0,4,12,32,72,96,104,100,96,76,64,76,84,100,132,156,164,164,160,148,148,168,176,192,224,252,260,272,280,276,280,300,316,332,368,396,408,424,440,440,456,484,500,516,548,580,600,620,636,644,656,680,696,712,740,764,768,780,792,796,808,824,832,832,848,864,864,864,860,848,836,832,812,792,788,772,744,716,684,636,588,552,500,448,412,372,316,272,228,176,132,96,56,16,-4,-28,-60,-80,-100,-128,-148,-160,-184,-204,-204,-204,-212,-220,-228,-244,-248,-244,-252,-260,-248,-244,-248,-240,-236,-244,-244,-236,-240,-240,-228,-216,-216,-208,-204,-208,-204,-192,-192,-196,-188,-184,-192,-184,-180,-184,-184,-176,-184,-188,-180,-172,-172,-168,-164,-168,-168,-164,-172,-176,-172,-168,-172,-156,-140,-140
2026-03-16 10:58:33,-132,-116,-120,-124,-112,-104,-104,-100,-96,-104,-108,-104,-104,-112,-104,-108,-120,-128,-132,-148,-152,-148,-156,-160,-148,-144,-148,-144,-136,-144,-148,-148,-160,-176,-176,-184,-200,-208,-208,-220,-220,-220,-236,-248,-248,-248,-256,-252,-244,-252,-252,-244,-252,-256,-248,-240,-244,-240,-236,-248,-248,-244,-248,-252,-244,-244,-260,-268,-280,-296,-300,-288,-264,-224,-164,-96,0,136,300,476,660,820,944,1060,1132,1116,996,752,372,-80,-536,-944,-1244,-1384,-1392,-1332,-1232,-1080,-908,-740,-572,-416,-304,-232,-180,-156,-152,-124,-84,-48,-4,32,40,24,16,0,-12,-8,8,28,60,88,88,80,76,64,48,56,76,92,120,152,156,148,148,144,132,144,164,180,208,232,236,232,244,248,248,264,288,312,340,372,380,384,404,416,424,444,472,492,520,552,564,572,588,600,608,632,660,680,704,732,740,748,764,772,768,780,796,796,804,812,812,808,812,808,792,784,780,764,752,736,696,652,616,576,524,488,452,400,356,320,268,220,184,140,88,52,20,-16,-48,-76,-112,-144,-160,-184,-216,-232,-240,-260,-264,-264,-280,-292,-292,-300,-316,-320,-320,-328,-328,-324,-332,-332,-316,-316,-324,-316,-308,-316,-308,-300,-300,-300,-292,-288,-292,-284,-280,-276,-264,-252,-252,-248,-236,-232,-236,-224,-216,-216,-208,-200,-204,-212,-208,-204,-204,-188,-184,-192,-188,-180,-184,-184,-168,-156,-152,-144,-136,-136,-124,-112,-120,-124,-112,-112,-124,-124,-120,-124,-124,-124,-140,-152,-152,-164,-172,-160,-156,-160,-156,-152,-160,-160,-152,-156,-164,-164,-164,-176,-180,-184,-204,-220,-220,-224,-232,-236,-240,-252,-252,-248,-256,-260,-252,-252,-256,-256,-252,-260,-256,-248,-252,-256,-248,-248,-252,-248,-248,-256,-252,-248,-272,-296,-296,-300,-312,-292,-252,-212,-156,-76,24,160,328,512,668,800,928,1016,1048,1000,832,532,144,-288,-728,-1100,-1340,-1436,-1412,-1324,-1204,-1048,-860,-680,-516,-364,-248,-184,-148,-128,-124,-108,-68,-24,4,28,36,20,8,0,-16,-8,24,60,88,112,120,104,88,76,60,64,88,108,128,148,156,148,148,152,148,160,188,212,232,252,264,260,260,268,272,284,308,328,348,376,400,408,420,432,440,452,484,508,532,560,580,592,608,628,632,648,680,704,720,740,756,756,768,780,780,788,804,812,812,824,824,812,808,808,792,780,780,764,740,724,696,648,608,564,504,464,428,384,336,304,260,208,160,120,64,20,-4,-44,-76,-96,-120,-152,-168,-184,-212,-228,-232,-240,-252,-256,-264,-276
2026-03-16 10:58:34,-276,-280,-296,-304,-296,-296,-304,-300,-300,-308,-300,-300,-308,-308,-292,-288,-288,-276,-268,-272,-264,-260,-268,-260,-236,-236,-244,-240,-236,-236,-228,-224,-224,-220,-200,-196,-208,-200,-192,-196,-188,-180,-192,-200,-192,-196,-204,-204,-204,-208,-208,-208,-216,-212,-196,-196,-200,-196,-192,-196,-180,-168,-172,-164,-152,-148,-148,-136,-132,-140,-136,-136,-144,-152,-140,-144,-148,-144,-148,-164,-172,-172,-180,-180,-172,-176,-180,-168,-160,-160,-156,-160,-172,-172,-164,-172,-184,-192,-200,-216,-212,-204,-220,-232,-228,-236,-252,-248,-244,-248,-236,-228,-240,-244,-236,-232,-236,-228,-228,-236,-236,-232,-236,-232,-224,-232,-240,-244,-256,-272,-276,-280,-284,-252,-200,-156,-92,20,164,324,516,692,816,944,1056,1092,1048,900,608,192,-248,-688,-1096,-1368,-1472,-1464,-1376,-1232,-1064,-892,-700,-520,-376,-264,-180,-144,-136,-120,-108,-92,-52,-12,8,24,32,8,-8,-8,0,8,36,60,64,72,76,56,36,36,40,52,80,104,112,120,128,120,112,120,124,132,164,192,200,208,224,224,228,244,256,264,292,320,332,348,368,368,368,380,404,432,464,484,492,512,540,544,552,576,600,620,652,680,696,712,728,732,736,752,764,768,780,796,796,800,800,788,772,764,756,744,732,716,688,664,636,596,548,512,472,424,388,348,288,244,204,152,104,68,28,-8,-36,-60,-96,-124,-140,-168,-196,-208,-224,-248,-256,-264,-288,-308,-308,-316,-328,-328,-332,-340,-336,-332,-340,-332,-316,-320,-328,-320,-316,-320,-316,-308,-320,-320,-308,-304,-308,-296,-288,-284,-268,-256,-260,-252,-240,-244,-252,-240,-240,-244,-236,-232,-236,-236,-232,-232,-228,-220,-220,-228,-224,-224,-228,-228,-220,-224,-228,-220,-212,-212,-200,-188,-184,-172,-156,-148,-140,-124,-120,-124,-112,-108,-120,-120,-104,-104,-116,-120,-128,-144,-144,-140,-140,-136,-128,-136,-140,-124,-124,-132,-136,-144,-164,-164,-156,-168,-184,-184,-188,-196,-188,-192,-212,-220,-224,-236,-244,-236,-236,-236,-228,-216,-220,-216,-204,-204,-212,-204,-200,-204,-204,-200,-204,-200,-192,-196,-208,-212,-232,-248,-248,-248,-240,-204,-152,-104,-24,104,252,420,604,760,880,992,1072,1068,976,784,476,88,-328,-756,-1140,-1364,-1412,-1356,-1244,-1084,-908,-724,-540,-372,-240,-136,-64,-48,-48,-40,-24,0,44,80,92,96,96,76,60,64,80,96,128,148,156,164,176,164,152,152,152,160,188,212,216,224,232,220,212,224,232,244,268,296,308,320,332,328,328,344,356,372,412,444,460,476,496,496,496,508,520,532
2026-03-16 10:58:35,560,592,608,636,664,676,688,716,740,768,800,824,836,852,872,880,880,896,904,912,932,944,932,932,932,920,908,900,888,872,872,856,824,796,768,728,688,656,608,552,512,468,412,368,332,284,240,208,172,128,104,76,40,20,4,-20,-44,-60,-76,-92,-92,-104,-124,-132,-132,-144,-160,-160,-164,-172,-168,-176,-188,-184,-176,-176,-176,-168,-164,-164,-156,-152,-160,-156,-144,-144,-144,-132,-132,-136,-124,-124,-128,-120,-104,-100,-100,-84,-84,-84,-76,-76,-84,-84,-80,-84,-84,-76,-76,-76,-68,-64,-72,-72,-64,-76,-80,-72,-76,-80,-76,-76,-88,-88,-80,-88,-92,-84,-84,-96,-96,-104,-116,-112,-96,-92,-88,-72,-60,-56,-44,-40,-48,-48,-44,-48,-52,-48,-56,-56,-44,-36,-44,-52,-56,-64,-68,-56,-56,-64,-60,-64,-68,-60,-52,-64,-72,-76,-88,-100,-100,-108,-132,-140,-140,-144,-152,-152,-168,-180,-172,-180,-192,-188,-180,-196,-200,-188,-192,-196,-188,-188,-196,-188,-176,-172,-172,-164,-168,-176,-172,-180,-204,-212,-220,-244,-256,-244,-216,-176,-116,-36,76,244,448,672,892,1084,1244,1392,1500,1500,1364,1104,740,296,-200,-712,-1120,-1324,-1352,-1296,-1208,-1076,-916,-748,-572,-404,-276,-192,-148,-144,-156,-152,-124,-96,-64,-28,-16,-20,-32,-60,-88,-92,-72,-52,-24,4,16,20,20,4,-12,-8,8,24,48,76,84,84,84,72,56,64,84,104,128,156,168,172,184,180,168,176,200,216,236,268,276,284,296,300,292,304,332,352,380,412,432,444,464,472,480,504,536,556,584,612,624,636,652,656,652,660,676,680,688,696,696,692,692,680,660,660,664,652,640,632,612,588,560,520,468,432,396,352,316,288,240,192,156,112,64,32,4,-28,-56,-84,-124,-168,-192,-228,-264,-288,-308,-332,-344,-352,-368,-380,-376,-376,-384,-384,-376,-376,-372,-360,-356,-356,-348,-348,-356,-348,-340,-348,-348,-336,-332,-328,-312,-308,-320,-312,-300,-300,-296,-284,-280,-280,-272,-276,-284,-284,-276,-272,-264,-248,-248,-248,-248,-264,-276,-272,-256,-256,-248,-240,-240,-236,-220,-220,-224,-212,-204,-212,-220,-212,-220,-224,-220,-228,-240,-236,-224,-220,-212,-196,-196,-188,-172,-168,-168,-156,-148,-152,-152,-148,-152,-152,-144,-148,-160,-152,-148,-148,-132,-124,-136,-148,-144,-144,-140,-132,-132,-152,-168,-176,-192,-208,-208,-220,-232,-228,-220,-232,-240,-240,-248,-252,-248,-248,-256,-248,-244,-252,-252,-240,-240,-240,-232,-240,-248,-240,-240,-244,-236,-224,-220,-220,-208,-216,-232,-244,-256,-280,-284,-260,-224,-172
2026-03-16 10:58:36,-88,16,144,316,516,704,868,1016,1132,1188,1168,1040,768,380,-60,-540,-976,-1268,-1404,-1416,-1348,-1236,-1084,-896,-704,-536,-380,-244,-160,-116,-92,-88,-80,-44,0,32,64,84,76,60,52,36,28,52,88,112,140,152,140,124,112,100,100,132,164,176,192,204,200,196,196,192,200,224,248,264,288,308,308,304,316,320,332,364,400,424,452,476,484,496,512,512,516,540,576,604,636,664,672,684,704,716,724,752,784,804,828,848,852,860,868,868,864,876,884,880,888,900,892,892,892,880,864,860,852,832,812,792,748,708,672,624,572,536,496,440,396,360,308,260,216,168,124,96,68,32,8,-12,-44,-72,-92,-120,-148,-152,-160,-176,-188,-188,-204,-216,-216,-228,-244,-240,-236,-240,-232,-220,-228,-228,-220,-228,-232,-224,-216,-216,-208,-200,-200,-192,-184,-188,-188,-168,-148,-140,-132,-120,-120,-120,-112,-116,-120,-108,-100,-104,-100,-96,-96,-92,-84,-84,-88,-84,-80,-84,-72,-60,-56,-52,-40,-40,-44,-36,-28,-40,-40,-40,-52,-60,-52,-48,-48,-40,-40,-48,-44,-40,-48,-56,-52,-56,-68,-68,-64,-60,-52,-48,-64,-68,-64,-76,-92,-100,-112,-136,-144,-140,-152,-164,-168,-180,-188,-184,-184,-192,-188,-176,-180,-184,-172,-176,-180,-176,-172,-176,-172,-164,-168,-164,-160,-168,-176,-168,-168,-184,-192,-204,-220,-224,-208,-184,-148,-92,-28,56,184,332,484,636,764,872,964,1012,992,872,636,260,-180,-616,-996,-1268,-1388,-1380,-1312,-1204,-1048,-872,-700,-528,-372,-260,-180,-124,-96,-76,-44,0,44,88,124,132,120,104,92,76,84,112,140,176,208,208,196,188,176,156,160,180,200,224,256,264,264,272,272,272,288,312,328,352,376,380,380,392,400,400,416,444,460,488,516,524,528,540,552,556,576,604,628,660,700,720,740,764,780,792,820,852,872,900,932,944,952,972,980,976,980,988,992,1000,1012,1004,992,996,988,972,960,948,928,916,904,868,832,796,744,684,636,588,536,496,464,416,364,328,284,240,212,184,148,120,100,72,40,24,8,-8,-16,-28,-48,-56,-60,-76,-96,-96,-104,-116,-120,-120,-132,-136,-132,-136,-140,-128,-120,-120,-112,-100,-100,-88,-72,-76,-80,-72,-68,-72,-64,-52,-52,-40,-28,-36,-36,-24,-20,-24,-16,-4,-4,0,8,0,0,4,4,0,0,0,-12,-12,0,0,-4,4,8,4,16,24,24,24,28,16,4,4,4,0,0,-4,-16,-24,-24,-32,-40,-32,-32,-40,-40,-36,-36,-32
2026-03-16 10:58:37,-24,-36,-44,-44,-48,-60,-64,-68,-80,-88,-92,-108,-116,-116,-120,-132,-136,-136,-144,-144,-140,-152,-156,-140,-136,-140,-136,-124,-124,-116,-108,-112,-112,-100,-96,-104,-104,-112,-140,-160,-176,-200,-212,-184,-148,-116,-60,28,148,300,480,648,792,932,1052,1116,1120,1028,800,452,36,-400,-820,-1120,-1272,-1296,-1232,-1112,-964,-792,-612,-452,-300,-164,-80,-40,-20,-12,-8,20,72,112,140,164,160,136,120,112,108,124,152,168,188,208,208,188,180,176,168,184,208,224,236,260,260,244,240,244,244,260,288,308,328,360,376,376,384,396,400,412,436,452,472,504,520,524,536,552,568,592,628,648,672,704,724,728,752,772,784,808,840,856,876,900,916,924,936,944,940,952,968,964,960,964,952,936,928,920,900,896,888,868,840,820,784,736,696,652,600,556,520,464,412,368,320,268,228,196,148,112,80,44,16,0,-20,-48,-64,-76,-100,-112,-124,-144,-156,-156,-168,-184,-188,-192,-204,-200,-200,-208,-212,-196,-196,-212,-216,-220,-228,-224,-212,-212,-216,-204,-196,-200,-192,-184,-188,-180,-172,-176,-176,-164,-164,-168,-164,-160,-160,-156,-144,-148,-152,-140,-136,-144,-144,-140,-140,-132,-128,-136,-140,-132,-132,-136,-124,-112,-108,-92,-80,-80,-76,-64,-60,-68,-64,-60,-68,-64,-60,-68,-76,-68,-76,-92,-96,-100,-116,-116,-116,-128,-136,-128,-124,-128,-124,-124,-136,-140,-144,-164,-176,-176,-184,-192,-192,-192,-204,-204,-208,-220,-228,-224,-224,-232,-232,-228,-236,-232,-228,-236,-236,-228,-224,-220,-212,-208,-212,-208,-200,-204,-208,-204,-216,-236,-248,-256,-268,-248,-208,-176,-132,-44,68,208,384,576,736,872,1004,1096,1124,1076,904,584,176,-260,-704,-1076,-1304,-1392,-1368,-1264,-1132,-980,-800,-624,-468,-324,-212,-156,-132,-112,-96,-76,-36,0,32,60,68,48,28,20,12,16,44,80,100,120,124,108,92,88,84,92,124,156,176,196,204,188,184,188,184,184,208,232,244,268,280,276,276,284,292,300,328,356,372,396,416,408,412,428,440,448,476,504,524,552,576,580,592,620,644,664,696,732,752,772,788,792,796,812,820,816,832,848,856,864,868,852,840,840,828,808,792,772,748,732,708,664,620,580,524,472,432,384,332,288,244,188,144,112,72,32,4,-20,-56,-84,-108,-144,-172,-188,-212,-240,-248,-256,-272,-276,-280,-300,-312,-308,-312,-324,-328,-328,-332,-328,-320,-328,-324,-308,-304,-308,-300,-296,-296,-292,-284,-292,-288,-276,-272,-276,-268,-260,-264,-256
2026-03-16 10:58:38,-252,-264,-268,-256,-248,-244,-224,-216,-216,-208,-200,-208,-208,-200,-204,-216,-212,-212,-216,-208,-200,-208,-204,-192,-192,-200,-196,-192,-196,-188,-184,-192,-188,-176,-172,-172,-156,-148,-152,-144,-144,-152,-152,-144,-144,-144,-136,-136,-148,-156,-160,-172,-176,-168,-176,-188,-184,-180,-184,-176,-172,-180,-184,-180,-188,-196,-204,-212,-224,-220,-220,-232,-244,-244,-256,-268,-268,-268,-276,-268,-264,-272,-272,-260,-260,-260,-252,-256,-264,-264,-260,-268,-272,-264,-264,-264,-256,-252,-264,-276,-284,-300,-304,-280,-244,-192,-132,-64,32,172,336,512,692,844,972,1092,1164,1144,1016,764,388,-60,-512,-932,-1256,-1420,-1432,-1368,-1256,-1104,-928,-764,-600,-436,-316,-236,-188,-168,-160,-132,-104,-80,-44,0,12,0,-12,-32,-52,-44,-24,-4,24,60,68,64,60,44,28,32,48,64,92,120,132,132,132,124,112,124,144,156,180,208,216,220,232,240,240,256,272,288,320,348,360,364,376,380,388,416,440,460,484,520,536,548,568,584,600,628,656,672,696,732,752,768,792,800,800,812,824,828,840,860,856,848,844,836,820,816,800,776,756,740,708,668,632,584,532,496,452,396,348,308,260,212,176,132,80,48,12,-24,-56,-80,-112,-144,-168,-192,-220,-232,-240,-260,-268,-272,-284,-296,-296,-304,-316,-316,-316,-324,-316,-304,-304,-308,-304,-308,-316,-308,-304,-312,-308,-296,-292,-292,-280,-280,-280,-268,-260,-264,-256,-240,-236,-236,-228,-228,-228,-216,-212,-220,-216,-208,-208,-208,-196,-196,-196,-184,-180,-188,-188,-176,-176,-172,-160,-160,-168,-164,-160,-168,-168,-164,-168,-176,-172,-172,-176,-168,-164,-172,-168,-152,-156,-156,-140,-132,-128,-116,-112,-120,-112,-100,-104,-108,-104,-108,-116,-104,-100,-108,-104,-100,-112,-120,-112,-112,-120,-112,-116,-128,-128,-124,-128,-136,-132,-136,-144,-144,-152,-168,-172,-172,-184,-188,-184,-192,-208,-212,-216,-232,-228,-216,-220,-220,-212,-208,-208,-196,-192,-200,-196,-184,-188,-188,-184,-188,-200,-192,-192,-200,-196,-192,-204,-212,-204,-204,-184,-136,-84,-36,48,180,328,504,716,896,1040,1180,1292,1332,1280,1104,788,380,-56,-524,-960,-1244,-1352,-1344,-1248,-1108,-952,-780,-588,-420,-272,-152,-88,-72,-64,-52,-36,-8,32,68,88,104,100,76,64,60,64,84,116,140,156,168,164,140,132,132,136,148,180,200,212,228,224,208,204,212,220,236,268,288,304,320,324,308,312,324,332,348,380,400,416,440,452,444,456,476,492,512,548,572,592,616,632,640,660,688,696,716,752,776,796,824
2026-03-16 10:58:39,836,832,844,864,872,880,896,904,908,916,916,896,892,892,876,864,860,840,808,784,752,704,664,624,572,528,500,452,404,364,308,248,204,168,120,80,56,24,-4,-20,-48,-80,-100,-112,-136,-152,-156,-172,-188,-188,-196,-212,-212,-208,-220,-220,-212,-212,-216,-208,-216,-228,-224,-216,-216,-208,-196,-196,-196,-188,-188,-196,-188,-176,-180,-180,-168,-164,-160,-148,-144,-152,-140,-128,-132,-136,-124,-124,-128,-116,-116,-120,-116,-112,-120,-120,-108,-104,-108,-104,-104,-108,-104,-96,-92,-84,-76,-80,-92,-88,-96,-112,-108,-104,-116,-120,-112,-116,-120,-112,-112,-124,-116,-104,-96,-88,-72,-68,-64,-52,-44,-48,-40,-28,-36,-40,-32,-32,-32,-16,-16,-28,-24,-24,-40,-44,-32,-32,-32,-24,-24,-36,-32,-28,-36,-44,-44,-56,-60,-56,-64,-84,-92,-88,-96,-100,-96,-108,-116,-116,-120,-128,-128,-120,-132,-140,-132,-132,-132,-124,-124,-136,-128,-116,-116,-116,-104,-104,-108,-96,-96,-108,-116,-120,-132,-128,-108,-76,-28,36,112,220,380,576,780,988,1176,1328,1468,1580,1592,1472,1228,880,448,-20,-516,-940,-1172,-1224,-1176,-1088,-956,-792,-624,-448,-276,-144,-52,-4,0,-8,0,24,56,92,136,156,156,148,124,100,100,120,132,156,188,200,196,184,164,144,148,168,184,212,244,260,256,256,244,224,232,256,272,296,320,332,336,344,340,332,348,376,396,424,460,480,496,512,516,516,532,556,576,600,632,648,664,692,712,720,748,780,808,840,876,896,908,928,932,928,944,964,968,972,984,980,976,984,976,960,952,948,928,912,904,876,848,828,788,732,692,652,600,556,516,460,400,352,300,244,200,168,120,84,60,28,0,-12,-40,-72,-84,-92,-112,-124,-132,-144,-152,-152,-164,-184,-180,-176,-188,-192,-184,-188,-192,-188,-196,-208,-200,-188,-192,-188,-176,-184,-188,-176,-176,-184,-180,-168,-168,-160,-148,-144,-136,-124,-120,-120,-108,-96,-104,-100,-96,-100,-100,-92,-92,-100,-92,-84,-88,-84,-72,-76,-80,-72,-76,-84,-76,-72,-80,-84,-80,-88,-92,-80,-80,-92,-84,-80,-92,-96,-88,-92,-92,-88,-92,-96,-92,-92,-96,-92,-80,-72,-64,-52,-48,-52,-44,-32,-32,-28,-16,-16,-16,-8,-16,-24,-20,-20,-32,-32,-28,-32,-32,-24,-32,-44,-36,-28,-36,-40,-36,-40,-48,-44,-48,-60,-60,-60,-72,-76,-76,-84,-84,-80,-84,-96,-96,-88,-96,-96,-88,-92,-96,-88,-92,-100,-92,-88,-92,-92,-84,-84,-84,-72,-76,-88,-80,-80,-104,-124,-128,-132,-120,-76
2026-03-16 10:58:40,-24,20,104,232,380,560,768,956,1108,1256,1372,1416,1384,1244,952,548,104,-352,-768,-1040,-1176,-1200,-1136,-1020,-884,-720,-544,-388,-256,-144,-76,-40,-12,4,24,68,116,152,176,192,180,152,144,144,144,164,204,228,248,268,260,240,228,220,220,244,284,308,324,340,332,312,312,316,316,332,372,396,416,432,428,420,428,436,436,460,496,520,536,556,556,556,564,584,600,636,676,704,732,760,776,788,812,836,848,872,908,932,956,976,984,984,996,1008,1008,1024,1040,1044,1048,1056,1056,1048,1056,1056,1036,1020,1012,984,956,940,900,852,820,780,720,672,632,576,532,492,440,384,344,300,252,216,188,152,120,100,68,32,16,4,-12,-28,-32,-52,-60,-64,-76,-92,-92,-92,-100,-108,-108,-120,-128,-128,-132,-140,-132,-128,-136,-132,-124,-120,-112,-96,-96,-100,-88,-80,-84,-76,-64,-64,-56,-36,-32,-32,-24,-16,-16,-4,4,4,8,20,20,20,32,40,32,36,44,40,44,56,56,48,52,52,40,40,44,36,36,44,40,32,36,36,28,32,44,40,32,36,24,12,24,36,40,52,60,60,64,84,84,80,88,96,96,104,112,104,100,108,96,88,92,92,76,76,80,68,60,64,64,64,76,80,64,60,64,56,48,48,32,20,24,28,20,20,16,4,0,4,0,-4,0,0,-4,0,8,8,12,20,12,8,16,16,12,16,20,16,12,16,4,-4,-8,-16,-36,-40,-32,-16,24,80,140,236,388,556,744,948,1120,1256,1380,1460,1448,1340,1116,760,324,-124,-564,-920,-1104,-1136,-1092,-996,-848,-684,-524,-360,-204,-84,0,60,72,76,100,132,164,208,240,244,236,228,200,176,180,196,208,240,268,280,280,272,248,236,248,260,276,300,324,332,332,336,320,312,324,340,356,384,420,436,440,440,432,424,444,464,480,512,536,544,552,564,564,568,596,620,644,676,708,724,744,768,776,784,808,832,852,884,912,928,944,968,972,976,996,1008,1008,1012,1020,1016,1020,1020,1008,992,988,980,964,948,932,896,860,824,772,724,684,636,580,532,496,448,408,368,312,264,232,192,152,128,104,68,40,16,-12,-40,-52,-64,-80,-88,-96,-112,-120,-124,-140,-152,-148,-152,-164,-160,-148,-152,-152,-152,-164,-172,-160,-160,-168,-164,-156,-160,-156,-144,-144,-152,-140,-132,-132,-124,-116,-120,-116,-104,-104,-104,-92,-84,-88,-76,-68,-68,-60,-52,-60,-68,-56,-52,-56,-48,-40,-44,-48,-44
2026-03-16 10:58:41,-48,-48,-40,-40,-48,-44,-36,-40,-36,-32,-48,-60,-52,-52,-60,-60,-56,-64,-64,-64,-80,-92,-84,-80,-88,-88,-84,-92,-92,-88,-96,-100,-88,-80,-84,-80,-76,-84,-88,-80,-84,-76,-60,-48,-40,-24,-16,-12,-8,-4,-12,-24,-16,-16,-24,-16,-4,-12,-16,-20,-36,-48,-40,-32,-36,-32,-28,-36,-28,-20,-28,-40,-36,-40,-48,-52,-60,-80,-88,-84,-96,-108,-108,-116,-132,-136,-140,-152,-152,-144,-152,-156,-144,-140,-144,-140,-140,-148,-148,-144,-152,-156,-144,-140,-148,-144,-140,-144,-144,-144,-160,-160,-144,-128,-100,-48,8,84,204,360,528,728,944,1112,1256,1396,1480,1456,1320,1056,672,232,-224,-688,-1048,-1220,-1252,-1200,-1092,-960,-816,-652,-484,-336,-220,-136,-96,-96,-96,-76,-52,-16,24,56,60,60,48,20,12,16,24,44,84,108,116,120,112,96,84,92,96,112,136,152,148,152,148,128,124,136,144,164,196,220,228,240,248,240,244,256,264,280,312,336,344,364,380,380,388,412,432,456,492,516,528,548,560,560,572,592,608,628,668,696,716,740,760,768,784,804,808,820,840,852,848,852,848,832,828,828,812,796,796,784,756,732,696,652,612,572,508,448,400,352,296,248,200,144,100,60,12,-28,-56,-96,-136,-164,-196,-228,-248,-264,-288,-304,-304,-316,-332,-332,-336,-356,-360,-360,-376,-380,-376,-376,-388,-388,-392,-404,-404,-392,-400,-400,-392,-396,-400,-392,-388,-396,-396,-388,-388,-388,-380,-376,-376,-368,-356,-360,-356,-348,-352,-356,-348,-340,-340,-332,-328,-332,-328,-328,-336,-332,-320,-312,-308,-296,-284,-292,-288,-288,-300,-308,-300,-304,-316,-312,-312,-320,-324,-324,-340,-344,-336,-340,-344,-340,-340,-348,-348,-340,-344,-348,-336,-340,-352,-348,-348,-356,-352,-348,-352,-356,-348,-348,-356,-348,-348,-352,-348,-344,-356,-364,-352,-340,-336,-316,-308,-304,-292,-284,-288,-284,-272,-272,-276,-276,-276,-284,-276,-268,-280,-292,-292,-304,-316,-308,-304,-308,-308,-300,-300,-292,-284,-284,-292,-292,-296,-312,-316,-324,-344,-356,-352,-360,-368,-368,-368,-376,-376,-368,-372,-372,-364,-364,-372,-368,-360,-364,-364,-360,-368,-372,-364,-364,-368,-364,-360,-364,-360,-356,-368,-376,-372,-380,-392,-388,-364,-328,-272,-204,-128,-12,144,320,512,696,840,968,1088,1140,1084,916,628,220,-232,-688,-1100,-1392,-1512,-1512,-1448,-1336,-1184,-1024,-868,-708,-568,-456,-376,-332,-324,-312,-276,-244,-208,-164,-132,-128,-132,-148,-176,-192,-184,-168,-148,-120,-96,-92,-92,-100,-120,-124,-112,-100,-80,-52,-32,-24,-20,-24
2026-03-16 10:58:42,-36,-32,-16,-8,4,32,56,64,72,76,64,64,84,100,120,156,176,184,196,212,216,232,256,276,304,340,364,380,396,408,412,428,460,484,508,544,568,584,608,632,640,656,676,684,688,696,700,700,704,704,688,680,688,684,672,668,652,620,584,548,496,452,412,360,304,260,216,156,108,60,4,-40,-76,-120,-164,-188,-220,-252,-276,-296,-336,-368,-384,-400,-424,-432,-436,-448,-452,-464,-484,-488,-488,-496,-508,-504,-508,-520,-512,-508,-520,-524,-512,-512,-520,-516,-508,-508,-504,-496,-504,-504,-488,-480,-484,-476,-468,-468,-460,-452,-456,-456,-448,-440,-440,-432,-420,-420,-416,-404,-408,-404,-392,-392,-396,-388,-380,-384,-372,-368,-376,-376,-368,-368,-372,-360,-352,-356,-352,-348,-360,-364,-360,-368,-380,-376,-372,-372,-368,-364,-376,-372,-348,-332,-324,-308,-304,-304,-296,-288,-300,-308,-296,-292,-292,-276,-260,-260,-252,-244,-260,-268,-268,-280,-300,-300,-296,-300,-292,-288,-292,-292,-284,-292,-304,-304,-308,-320,-324,-328,-344,-348,-340,-344,-356,-360,-368,-376,-376,-376,-388,-392,-380,-384,-396,-392,-392,-400,-396,-384,-384,-380,-372,-372,-376,-364,-364,-368,-364,-364,-384,-396,-400,-412,-420,-412,-392,-360,-304,-252,-192,-88,64,232,416,596,740,860,960,992,924,752,460,44,-400,-812,-1180,-1440,-1544,-1532,-1460,-1332,-1168,-1000,-836,-672,-532,-424,-340,-296,-284,-264,-232,-204,-168,-128,-104,-100,-100,-108,-128,-128,-104,-84,-60,-32,-12,-16,-20,-36,-56,-56,-40,-32,-16,12,28,28,36,36,24,32,48,56,68,104,128,140,148,144,124,124,144,160,180,212,236,248,276,292,296,312,336,352,368,400,424,444,480,512,520,536,568,604,636,676,704,724,748,764,764,776,800,812,824,848,856,852,856,852,832,824,820,800,776,760,736,700,668,632,572,520,480,420,356,304,244,184,132,80,32,-4,-32,-68,-108,-128,-160,-200,-228,-248,-284,-312,-324,-344,-364,-376,-392,-408,-412,-416,-432,-432,-424,-428,-432,-420,-416,-432,-440,-444,-452,-452,-444,-448,-452,-448,-452,-456,-448,-444,-448,-440,-420,-412,-408,-388,-380,-376,-368,-360,-372,-376,-364,-360,-360,-344,-336,-336,-328,-320,-324,-320,-308,-312,-316,-308,-308,-312,-308,-308,-312,-304,-292,-296,-308,-300,-300,-300,-288,-280,-292,-288,-280,-288,-296,-288,-284,-296,-292,-288,-292,-284,-268,-260,-252,-236,-228,-232,-220,-216,-228,-232,-232,-240,-244,-240,-236,-236,-228,-228,-248,-252,-248,-260,-268,-260,-260,-264,-248,-240,-252,-252,-240,-244,-256,-256,-264,-284,-288,-288
2026-03-16 10:58:43,-300,-304,-296,-300,-304,-304,-308,-316,-312,-308,-324,-332,-324,-328,-328,-316,-308,-316,-308,-304,-316,-312,-304,-316,-324,-320,-320,-328,-324,-328,-348,-352,-348,-348,-328,-276,-224,-160,-44,100,260,460,668,828,960,1092,1156,1128,1008,756,368,-56,-488,-920,-1268,-1444,-1484,-1448,-1340,-1196,-1040,-868,-696,-548,-424,-324,-272,-252,-232,-212,-192,-152,-100,-68,-48,-40,-56,-80,-88,-92,-92,-72,-40,-24,-16,0,0,-16,-12,-4,0,16,52,72,80,88,84,76,80,84,88,108,144,164,176,188,188,180,192,208,216,240,272,292,312,336,344,344,364,384,388,412,444,468,480,504,520,536,568,592,612,648,696,724,744,772,784,792,812,828,836,848,872,884,888,896,892,876,872,860,832,824,828,812,780,748,700,648,600,544,480,420,372,308,248,204,148,88,44,0,-56,-92,-116,-152,-188,-212,-240,-272,-288,-304,-332,-344,-348,-364,-368,-368,-376,-388,-396,-404,-420,-420,-412,-416,-424,-420,-420,-428,-424,-420,-428,-428,-416,-420,-424,-412,-412,-416,-404,-400,-408,-396,-376,-368,-364,-348,-348,-352,-344,-340,-348,-344,-336,-336,-332,-312,-308,-312,-300,-292,-300,-296,-288,-288,-284,-268,-264,-264,-256,-256,-272,-276,-268,-276,-276,-264,-272,-288,-284,-280,-284,-276,-264,-272,-284,-276,-284,-288,-280,-280,-296,-296,-284,-288,-292,-284,-288,-300,-296,-296,-300,-288,-268,-260,-252,-240,-244,-248,-236,-232,-240,-232,-224,-228,-228,-220,-228,-236,-228,-224,-232,-232,-228,-244,-252,-244,-244,-244,-240,-244,-256,-256,-252,-260,-264,-260,-260,-260,-260,-272,-292,-300,-296,-304,-308,-304,-312,-332,-336,-340,-352,-352,-348,-348,-356,-352,-352,-356,-344,-344,-356,-352,-336,-336,-340,-328,-328,-336,-336,-340,-352,-352,-348,-364,-372,-360,-344,-304,-244,-196,-144,-48,80,224,404,600,756,888,1028,1116,1104,1008,788,428,0,-444,-904,-1276,-1476,-1532,-1496,-1384,-1232,-1072,-896,-716,-560,-428,-328,-284,-276,-264,-236,-200,-156,-108,-76,-52,-40,-60,-96,-116,-120,-128,-128,-112,-104,-100,-100,-112,-132,-128,-108,-92,-68,-28,0,12,24,20,4,0,16,24,44,72,84,84,88,88,76,80,100,112,128,160,180,192,208,212,208,220,244,260,280,316,344,368,400,416,424,440,464,484,516,560,588,608,628,632,628,640,660,668,676,692,696,696,712,712,700,696,700,688,672,668,648,616,596,560,504,456,412,356,308,264,208,152,104,44,-16,-56,-96,-140,-172,-188,-216,-240,-252,-280,-320,-344,-356,-376,-396,-412,-440,-464,-472,-484
2026-03-16 10:58:44,-500,-504,-504,-516,-524,-520,-524,-532,-524,-520,-528,-524,-512,-512,-512,-508,-512,-516,-504,-500,-512,-504,-496,-500,-496,-488,-492,-492,-480,-484,-496,-492,-480,-480,-476,-456,-452,-448,-440,-440,-456,-460,-460,-472,-484,-484,-492,-496,-484,-480,-480,-472,-452,-448,-448,-432,-432,-436,-440,-448,-464,-460,-456,-464,-468,-464,-472,-480,-472,-472,-488,-488,-488,-508,-516,-508,-504,-508,-500,-504,-512,-500,-484,-480,-480,-468,-464,-464,-448,-444,-448,-432,-420,-428,-436,-424,-420,-420,-416,-424,-432,-420,-408,-412,-412,-408,-416,-428,-424,-428,-444,-440,-428,-420,-412,-404,-404,-416,-416,-428,-448,-456,-460,-476,-484,-488,-500,-508,-500,-500,-516,-524,-528,-536,-544,-540,-540,-548,-540,-544,-552,-536,-528,-540,-552,-552,-552,-552,-544,-560,-584,-588,-592,-612,-624,-628,-648,-660,-660,-664,-656,-620,-568,-516,-420,-284,-136,40,244,408,544,692,800,816,732,536,212,-192,-628,-1088,-1480,-1696,-1760,-1736,-1644,-1500,-1348,-1184,-1008,-856,-728,-624,-568,-556,-552,-540,-532,-512,-472,-444,-436,-432,-440,-464,-484,-492,-496,-480,-444,-424,-416,-392,-376,-368,-352,-324,-312,-296,-260,-232,-208,-164,-104,-44,24,92,148,208,268,316,344,368,380,372,372,380,392,416,452,472,492,520,532,524,528,540,556,584,624,656,676,700,720,724,736,748,760,784,820,840,848,868,884,884,888,896,900,908,932,944,944,960,968,960,960,968,960,952,944,928,896,872,836,788,744,708,656,604,564,512,456,404,356,300,248,200,144,96,64,24,-16,-48,-80,-120,-152,-180,-208,-224,-220,-224,-232,-224,-220,-232,-240,-232,-228,-216,-184,-164,-148,-128,-108,-100,-84,-64,-52,-32,-8,0,4,20,32,24,24,32,32,36,48,44,36,36,44,48,60,72,72,64,68,60,52,60,72,72,76,76,68,64,76,84,76,76,84,76,76,88,92,96,104,104,100,104,104,92,80,64,44,28,24,12,0,0,0,-8,-12,-12,-28,-48,-56,-76,-84,-76,-72,-84,-84,-72,-60,-40,-8,4,4,8,0,-16,-32,-44,-64,-84,-96,-128,-160,-176,-188,-200,-200,-192,-196,-196,-188,-192,-204,-196,-192,-204,-208,-204,-212,-220,-224,-240,-256,-256,-256,-276,-288,-292,-312,-336,-352,-368,-380,-372,-352,-320,-280,-240,-184,-88,44,192,356,516,656,772,864,900,848,700,428,20,-420,-816,-1144,-1360,-1432,-1408,-1336,-1216,-1056,-896,-744,-588,-452,-352,-276,-228,-208,-184,-140,-100,-64,-24,4,0,-4,-12,-28,-40,-32,-24,-8,16,36,24,8,0,-20,-28,-12,0
2026-03-16 10:58:45,12,40,60,64,68,72,68,72,92,104,120,152,168,172,180,188,184,192,212,232,252,288,316,328,340,352,352,364,388,404,428,460,484,492,512,532,544,564,596,624,652,688,720,732,752,772,784,796,816,828,836,852,860,852,848,848,836,820,808,788,764,744,716,668,620,576,520,464,412,352,296,252,204,140,80,32,-24,-80,-116,-160,-200,-220,-244,-280,-312,-332,-360,-380,-396,-416,-436,-444,-456,-476,-488,-496,-512,-524,-528,-548,-568,-568,-572,-584,-592,-596,-604,-600,-588,-588,-596,-592,-592,-600,-588,-564,-552,-544,-532,-536,-536,-516,-500,-500,-504,-504,-516,-516,-504,-500,-500,-488,-476,-480,-476,-472,-468,-468,-468,-480,-496,-492,-496,-516,-520,-516,-520,-528,-524,-524,-528,-520,-524,-540,-544,-548,-556,-560,-548,-548,-548,-536,-528,-532,-524,-520,-528,-528,-524,-528,-532,-520,-516,-524,-524,-524,-536,-544,-540,-544,-552,-552,-548,-552,-544,-536,-540,-544,-544,-556,-564,-556,-548,-552,-552,-544,-552,-556,-548,-556,-564,-556,-552,-556,-552,-540,-540,-540,-532,-528,-524,-504,-496,-496,-492,-476,-472,-460,-448,-448,-456,-448,-440,-436,-432,-420,-420,-420,-412,-404,-392,-356,-308,-264,-208,-128,-24,104,268,448,616,772,912,1028,1096,1080,960,716,352,-84,-524,-908,-1200,-1360,-1388,-1332,-1236,-1096,-924,-756,-596,-432,-300,-216,-160,-116,-92,-60,-16,24,72,124,152,156,156,160,160,180,208,236,260,296,320,320,316,312,312,320,344,368,392,424,436,440,452,464,468,480,512,540,564,596,620,632,644,652,660,680,708,728,744,780,808,824,840,856,864,880,912,932,956,992,1016,1024,1032,1040,1036,1048,1072,1092,1108,1136,1164,1180,1200,1208,1208,1208,1224,1228,1224,1232,1228,1212,1204,1196,1180,1168,1160,1136,1108,1088,1064,1028,992,952,900,856,816,760,700,656,604,540,492,448,400,364,332,296,264,240,208,168,136,116,92,76,68,48,40,48,52,40,28,20,4,0,-4,-20,-32,-28,-20,-24,-24,-16,-24,-20,-8,-8,-12,-12,-12,-16,-12,-4,-8,0,4,4,8,20,24,20,24,28,20,20,28,28,28,32,36,32,36,44,40,40,48,40,32,40,44,36,40,52,48,48,52,40,36,44,48,44,52,60,60,64,80,80,88,100,104,108,120,128,124,128,140,132,124,136,148,148,148,144,128,128,132,124,116,128,140,140,148,152,148,148,156,152,152,160,156,140,140,140,132,128,132,120,108,112,112,100,100,100,96,96,104,96
2026-03-16 10:58:46,92,100,104,96,100,108,100,100,104,100,92,100,96,88,88,88,76,76,76,64,56,72,92,124,180,236,296,408,560,720,900,1076,1208,1324,1436,1488,1440,1288,1016,624,184,-236,-632,-928,-1068,-1076,-1008,-888,-732,-572,-408,-236,-92,20,108,160,172,184,208,236,268,308,340,344,344,332,308,300,308,320,340,376,396,400,400,388,372,364,364,364,376,400,412,416,420,416,404,404,424,444,472,504,528,536,552,560,560,568,584,596,612,640,668,680,704,720,728,748,784,804,828,868,900,924,960,992,1004,1024,1060,1088,1116,1156,1188,1208,1224,1240,1244,1260,1280,1288,1300,1320,1320,1308,1304,1304,1296,1292,1288,1276,1260,1252,1224,1188,1156,1120,1068,1020,976,916,864,824,776,716,668,620,560,504,460,408,364,340,312,276,248,220,184,160,148,124,104,100,88,68,64,60,44,40,40,28,16,20,16,12,20,24,16,24,36,24,20,28,24,16,16,20,16,20,24,20,16,28,36,32,36,44,48,56,64,60,52,60,64,60,72,80,76,80,84,76,68,72,72,60,60,60,52,52,56,48,48,64,68,68,76,76,72,76,80,80,84,104,124,128,140,148,148,152,156,152,152,164,164,160,164,168,160,156,156,140,124,124,120,112,116,116,108,112,116,108,104,108,104,96,100,100,84,80,84,72,56,52,44,28,16,4,0,4,12,12,16,24,24,16,20,32,32,40,44,32,20,28,32,28,36,40,32,32,32,20,8,8,4,4,20,52,88,140,220,320,464,652,852,1048,1228,1376,1504,1600,1616,1508,1280,956,556,120,-320,-732,-996,-1084,-1052,-968,-848,-688,-520,-360,-200,-68,20,84,116,116,116,136,160,184,216,240,240,236,232,212,208,228,240,252,280,300,300,296,284,268,260,272,288,300,324,344,344,344,344,328,328,352,368,380,408,428,432,436,436,428,436,464,492,512,540,560,564,576,588,596,612,640,660,676,704,736,756,776,796,804,820,852,880,900,936,964,972,988,1008,1016,1020,1036,1044,1052,1068,1072,1064,1068,1068,1052,1040,1032,1016,996,984,968,928,892,848,784,728,684,628,572,536,492,436,380,328,264,212,176,132,84,48,16,-16,-44,-64,-96,-120,-124,-140,-160,-172,-176,-188,-196,-208,-232,-240,-228,-224,-228,-224,-232,-248,-248,-240,-252,-260,-252,-260,-264,-256,-252,-256,-252,-252,-260,-264,-256,-256,-260,-252,-252,-252,-244,-236,-240
2026-03-16 10:58:47,-240,-236,-244,-248,-236,-228,-232,-232,-224,-228,-224,-212,-212,-224,-228,-228,-232,-232,-228,-236,-236,-224,-224,-228,-224,-220,-228,-228,-228,-240,-252,-252,-256,-264,-268,-268,-272,-272,-272,-280,-284,-272,-268,-276,-268,-268,-276,-276,-272,-288,-296,-292,-292,-300,-288,-276,-272,-264,-256,-256,-248,-232,-228,-228,-220,-220,-236,-232,-224,-232,-232,-220,-224,-240,-248,-256,-268,-268,-264,-272,-272,-264,-260,-260,-252,-248,-256,-256,-256,-276,-284,-288,-308,-320,-316,-320,-336,-344,-352,-376,-392,-392,-400,-412,-408,-404,-404,-400,-396,-404,-404,-396,-400,-404,-392,-392,-400,-400,-396,-404,-408,-404,-408,-420,-424,-432,-448,-444,-432,-420,-384,-332,-288,-216,-88,64,240,452,660,816,968,1116,1188,1156,1016,744,368,-48,-512,-1004,-1384,-1552,-1572,-1520,-1416,-1292,-1144,-976,-808,-668,-548,-460,-428,-424,-424,-416,-396,-360,-320,-304,-292,-284,-300,-324,-332,-336,-332,-308,-272,-256,-244,-240,-248,-260,-260,-260,-252,-224,-196,-188,-176,-164,-176,-192,-188,-176,-168,-140,-112,-100,-88,-68,-68,-72,-68,-60,-52,-24,0,20,40,56,64,68,84,104,120,148,180,196,216,240,256,272,296,316,332,364,396,416,432,456,472,484,508,524,532,548,568,576,588,608,608,600,612,628,648,672,680,664,656,648,616,576,544,500,440,404,368,312,264,232,184,124,80,36,-12,-52,-84,-128,-164,-192,-224,-260,-276,-296,-324,-336,-340,-360,-372,-368,-380,-400,-400,-408,-420,-416,-412,-424,-428,-420,-424,-424,-412,-408,-416,-412,-404,-408,-404,-392,-396,-396,-384,-380,-388,-388,-384,-388,-384,-368,-368,-380,-376,-372,-376,-368,-360,-368,-368,-360,-360,-364,-356,-356,-368,-364,-356,-364,-368,-356,-352,-352,-344,-348,-356,-352,-348,-352,-360,-356,-360,-368,-360,-360,-368,-364,-360,-364,-360,-348,-356,-364,-360,-352,-356,-356,-356,-360,-356,-336,-324,-320,-312,-304,-304,-292,-292,-300,-296,-284,-284,-292,-284,-276,-284,-288,-300,-324,-328,-324,-332,-340,-340,-340,-344,-336,-324,-332,-336,-328,-336,-344,-340,-344,-360,-356,-356,-372,-376,-368,-372,-388,-392,-396,-404,-396,-392,-404,-412,-408,-416,-412,-400,-392,-396,-388,-384,-396,-396,-392,-400,-408,-396,-392,-396,-388,-388,-408,-420,-416,-416,-408,-372,-324,-276,-204,-100,32,216,440,668,868,1044,1208,1340,1400,1340,1136,816,428,-24,-540,-1020,-1332,-1456,-1436,-1352,-1248,-1112,-948,-788,-636,-488,-380,-324,-300,-296,-304,-292,-252,-220,-188,-160,-156,-172,-184,-196,-224,-224,-196,-172,-152,-128,-120,-132,-136,-136,-140,-128,-100,-76,-60,-36,-24,-32,-36,-44,-52
2026-03-16 10:58:48,-48,-16,16,36,60,68,64,72,72,60,68,100,124,148,184,212,220,228,236,240,260,296,324,348,384,408,424,452,476,488,512,544,564,584,616,640,656,676,688,688,696,720,728,732,744,748,736,740,732,708,692,684,660,640,632,608,568,532,488,428,384,348,300,252,212,164,104,56,12,-40,-84,-108,-136,-164,-188,-216,-256,-276,-300,-328,-344,-352,-364,-376,-376,-384,-400,-400,-404,-424,-428,-420,-424,-432,-428,-424,-428,-420,-412,-420,-416,-408,-408,-416,-408,-408,-416,-408,-408,-420,-420,-404,-400,-400,-392,-392,-400,-392,-384,-388,-384,-376,-380,-384,-376,-376,-384,-372,-364,-372,-372,-360,-364,-368,-356,-356,-356,-348,-348,-360,-360,-352,-356,-364,-364,-364,-372,-368,-364,-368,-368,-360,-364,-372,-364,-364,-368,-364,-368,-380,-388,-380,-384,-388,-380,-384,-396,-392,-384,-388,-384,-372,-364,-356,-340,-328,-328,-316,-304,-308,-300,-288,-284,-288,-280,-276,-276,-268,-268,-288,-300,-296,-304,-308,-300,-300,-304,-296,-292,-300,-300,-292,-296,-300,-296,-304,-320,-320,-324,-344,-348,-344,-352,-360,-360,-360,-368,-364,-368,-376,-380,-368,-372,-376,-368,-364,-368,-364,-360,-368,-364,-348,-348,-352,-344,-340,-348,-336,-328,-340,-352,-360,-380,-388,-376,-356,-320,-256,-188,-112,12,176,356,564,792,984,1148,1320,1432,1436,1332,1096,732,288,-196,-708,-1124,-1344,-1404,-1376,-1280,-1144,-996,-832,-652,-492,-372,-280,-240,-244,-244,-228,-208,-176,-128,-96,-84,-76,-92,-128,-148,-148,-140,-116,-80,-52,-44,-36,-44,-64,-64,-48,-36,-24,4,28,36,44,40,24,24,40,52,68,96,112,116,132,136,132,136,156,164,180,212,232,244,260,272,268,276,300,320,348,384,412,432,456,472,480,496,524,544,564,600,624,644,676,692,692,704,724,732,736,756,764,756,756,756,740,732,732,720,708,712,700,668,640,600,544,496,456,408,360,316,264,204,152,96,36,-4,-36,-80,-124,-156,-192,-228,-252,-280,-316,-340,-352,-376,-396,-404,-416,-428,-432,-440,-452,-460,-460,-472,-480,-468,-468,-468,-464,-460,-468,-464,-456,-460,-464,-452,-448,-448,-440,-432,-436,-432,-420,-420,-416,-400,-396,-404,-396,-396,-404,-396,-384,-384,-376,-360,-356,-356,-348,-352,-364,-360,-348,-344,-336,-324,-328,-332,-324,-320,-324,-320,-312,-316,-320,-312,-312,-320,-308,-300,-308,-308,-304,-304,-304,-296,-300,-304,-292,-288,-300,-296,-292,-300,-312,-304,-304,-304,-296,-288,-292,-280,-256,-252,-252,-240,-232,-228,-220,-216,-224,-220,-212,-216,-224,-216,-216,-228,-228,-236,-252
2026-03-16 10:58:49,-260,-256,-268,-272,-264,-264,-268,-256,-252,-264,-260,-256,-268,-280,-276,-284,-296,-300,-308,-328,-324,-316,-324,-336,-332,-336,-340,-332,-332,-344,-344,-336,-344,-344,-336,-336,-336,-328,-324,-328,-324,-316,-320,-332,-328,-328,-332,-324,-328,-348,-364,-368,-380,-384,-352,-308,-256,-180,-84,36,204,408,624,820,992,1152,1268,1320,1272,1092,776,360,-108,-596,-1012,-1280,-1396,-1396,-1336,-1236,-1088,-924,-772,-624,-484,-384,-324,-288,-276,-268,-236,-184,-144,-108,-72,-68,-80,-96,-116,-136,-124,-92,-64,-36,-12,-12,-28,-40,-56,-68,-56,-28,-4,16,44,52,52,52,44,32,48,76,92,112,136,144,144,152,156,152,168,200,220,244,276,288,292,304,312,312,336,372,404,436,468,484,496,516,528,532,556,588,608,636,668,688,704,724,728,724,736,760,768,776,792,788,780,784,780,760,756,756,740,720,704,668,624,588,548,492,452,412,364,316,280,232,180,136,88,36,0,-24,-56,-88,-108,-144,-180,-196,-220,-256,-272,-280,-296,-308,-316,-324,-332,-328,-332,-344,-344,-336,-348,-360,-356,-360,-364,-356,-352,-356,-352,-340,-340,-340,-328,-324,-324,-316,-316,-324,-320,-308,-308,-304,-292,-288,-292,-276,-268,-272,-264,-244,-240,-232,-220,-220,-216,-204,-200,-212,-212,-200,-204,-208,-200,-200,-200,-188,-188,-200,-200,-196,-204,-212,-204,-200,-204,-196,-192,-196,-180,-160,-156,-152,-132,-132,-136,-128,-132,-144,-144,-132,-136,-140,-136,-148,-156,-148,-152,-172,-176,-172,-180,-180,-172,-172,-172,-160,-156,-164,-160,-156,-168,-180,-184,-192,-200,-200,-204,-216,-212,-204,-212,-216,-212,-216,-224,-220,-228,-240,-236,-228,-232,-236,-228,-228,-228,-220,-216,-228,-224,-220,-228,-228,-224,-224,-228,-224,-232,-244,-244,-240,-248,-236,-196,-144,-104,-40,44,160,308,488,656,792,924,1032,1084,1072,952,700,348,-56,-484,-884,-1172,-1320,-1336,-1260,-1144,-1008,-844,-680,-528,-380,-252,-172,-128,-96,-80,-72,-44,-4,20,48,68,64,44,28,16,8,32,64,84,108,128,124,108,108,100,88,108,140,160,176,196,200,196,192,188,180,200,232,252,276,300,300,296,312,316,316,332,356,372,396,420,432,436,448,456,464,496,540,560,580,612,632,652,680,696,704,736,764,780,808,840,848,852,872,884,892,912,936,944,948,952,932,916,908,888,864,868,868,848,820,804,768,716,672,616,552,508,464,408,364,324,260,204,160,116,68,40,20,-8,-32,-52,-84,-112,-128,-152,-180,-192,-200,-224,-236,-236,-252,-264,-260,-268,-288
2026-03-16 10:58:50,-292,-288,-292,-292,-284,-284,-288,-272,-268,-280,-280,-276,-288,-292,-288,-292,-292,-276,-276,-288,-276,-264,-260,-256,-244,-240,-236,-224,-224,-232,-220,-204,-204,-208,-204,-204,-200,-188,-180,-184,-172,-164,-172,-176,-164,-168,-172,-164,-168,-176,-172,-172,-180,-184,-176,-184,-196,-188,-184,-184,-168,-152,-144,-136,-120,-124,-132,-128,-128,-136,-128,-112,-112,-112,-104,-108,-112,-104,-116,-140,-148,-144,-152,-148,-140,-140,-136,-120,-120,-128,-128,-128,-140,-148,-148,-160,-172,-168,-176,-196,-196,-200,-216,-224,-220,-224,-224,-216,-220,-232,-228,-224,-236,-236,-224,-228,-228,-220,-216,-224,-224,-220,-220,-216,-200,-200,-204,-200,-208,-232,-236,-228,-232,-224,-188,-144,-92,0,120,268,464,688,880,1032,1180,1300,1356,1328,1168,872,500,76,-412,-880,-1196,-1344,-1356,-1272,-1156,-1020,-848,-668,-500,-344,-212,-132,-100,-88,-88,-84,-52,-12,12,36,52,40,20,12,4,0,16,52,80,104,128,128,112,104,92,80,104,132,152,168,188,188,172,168,164,172,196,220,240,256,276,276,272,284,284,284,316,352,368,388,424,440,444,460,472,476,508,548,568,596,632,652,672,696,708,720,748,788,808,832,860,872,876,892,896,892,904,920,920,924,932,928,924,924,908,880,876,868,836,808,792,752,700,660,612,556,516,472,416,368,320,260,200,156,104,48,12,-20,-64,-92,-116,-148,-168,-172,-180,-192,-184,-180,-200,-224,-248,-284,-320,-340,-360,-376,-372,-364,-364,-352,-336,-332,-332,-320,-320,-328,-328,-324,-332,-328,-312,-304,-296,-284,-280,-280,-268,-256,-264,-260,-240,-224,-200,-172,-172,-172,-164,-160,-180,-192,-196,-220,-236,-244,-256,-268,-260,-248,-244,-240,-232,-232,-228,-216,-212,-216,-204,-192,-196,-200,-192,-188,-176,-160,-164,-180,-180,-172,-172,-168,-164,-168,-168,-164,-180,-196,-196,-192,-200,-196,-184,-188,-184,-172,-168,-176,-172,-172,-188,-188,-176,-180,-184,-176,-180,-188,-184,-180,-184,-188,-180,-192,-200,-204,-212,-224,-220,-212,-220,-224,-228,-244,-256,-256,-264,-276,-272,-272,-284,-280,-268,-272,-276,-268,-268,-272,-264,-260,-264,-264,-260,-268,-272,-260,-264,-280,-280,-284,-308,-316,-312,-308,-284,-232,-180,-116,-4,140,308,508,724,908,1068,1232,1352,1392,1344,1164,848,456,4,-496,-952,-1236,-1348,-1336,-1252,-1136,-1008,-852,-688,-532,-392,-288,-244,-236,-228,-220,-208,-176,-136,-104,-80,-68,-84,-120,-136,-140,-140,-120,-88,-68,-56,-36,-44,-64,-68,-64,-64,-44,-16,0,12,24,20,4,0,0,0,20,52,80,104,128,132,124
2026-03-16 10:58:51,128,136,132,148,176,196,212,240,252,256,276,292,300,324,356,384,408,436,448,456,476,500,512,536,572,588,604,624,632,628,644,660,668,684,704,708,712,712,700,684,680,672,656,640,632,612,584,560,520,480,444,404,356,312,276,232,188,148,96,40,0,-32,-76,-104,-128,-164,-196,-212,-240,-276,-296,-308,-328,-348,-356,-372,-376,-372,-384,-400,-396,-392,-404,-404,-396,-404,-408,-400,-400,-408,-396,-384,-388,-388,-380,-384,-392,-388,-388,-384,-368,-360,-368,-356,-316,-284,-260,-236,-236,-260,-284,-304,-332,-348,-356,-360,-364,-356,-356,-356,-340,-332,-336,-336,-324,-328,-336,-332,-336,-348,-336,-320,-312,-304,-296,-300,-304,-292,-284,-284,-272,-260,-264,-264,-252,-244,-240,-232,-232,-236,-232,-232,-248,-252,-256,-276,-288,-284,-292,-300,-288,-280,-280,-276,-268,-272,-280,-272,-272,-272,-264,-260,-268,-268,-264,-272,-276,-268,-268,-280,-284,-284,-296,-300,-300,-308,-312,-312,-324,-336,-336,-332,-336,-336,-328,-328,-328,-320,-324,-332,-324,-320,-320,-316,-308,-308,-308,-300,-312,-324,-324,-320,-328,-324,-324,-340,-352,-348,-344,-324,-272,-216,-160,-60,80,244,440,668,868,1048,1224,1360,1400,1348,1172,860,456,0,-496,-928,-1180,-1272,-1272,-1204,-1092,-964,-820,-664,-524,-408,-308,-252,-236,-228,-212,-196,-160,-108,-80,-64,-60,-72,-104,-128,-128,-120,-96,-56,-32,-20,-8,-16,-40,-52,-52,-52,-36,-4,8,20,40,48,40,36,48,60,80,112,132,136,148,156,144,140,148,164,188,220,244,256,276,288,292,308,332,348,368,400,420,436,460,476,484,504,532,556,576,608,624,640,672,692,700,708,720,720,724,740,744,736,744,744,728,716,712,696,684,680,660,636,612,576,524,480,440,384,336,292,244,196,156,116,68,24,-8,-48,-80,-100,-132,-176,-200,-216,-244,-276,-296,-312,-316,-312,-324,-340,-336,-332,-348,-352,-352,-364,-372,-364,-372,-380,-376,-372,-380,-384,-384,-384,-376,-368,-376,-388,-380,-372,-376,-376,-364,-364,-356,-332,-328,-328,-312,-308,-308,-304,-304,-304,-300,-284,-284,-292,-288,-280,-284,-280,-272,-276,-276,-272,-276,-280,-280,-280,-284,-284,-276,-284,-284,-272,-272,-268,-252,-240,-240,-236,-224,-216,-208,-196,-204,-212,-200,-192,-196,-196,-188,-196,-200,-200,-212,-224,-220,-220,-232,-232,-224,-224,-220,-204,-204,-208,-204,-204,-212,-216,-216,-228,-236,-240,-256,-276,-284,-292,-304,-308,-304,-312,-316,-316,-324,-336,-324,-312,-312,-304,-300,-304,-304,-292,-296,-300,-284,-272,-272,-268,-264,-272,-272,-268,-284,-308
2026-03-16 10:58:52,-316,-320,-336,-328,-296,-264,-224,-152,-56,68,244,452,652,840,1016,1156,1228,1220,1096,852,512,104,-356,-792,-1104,-1260,-1284,-1224,-1128,-996,-844,-692,-552,-420,-304,-236,-196,-176,-180,-168,-128,-84,-52,-28,-12,-24,-32,-40,-52,-56,-40,-16,0,24,48,40,20,12,0,-4,16,40,56,68,80,72,64,68,68,76,104,124,140,164,180,176,180,192,192,192,216,240,260,292,320,328,340,352,356,364,396,428,448,476,504,516,528,544,552,568,600,628,648,676,704,708,712,720,720,716,728,744,752,760,768,764,752,744,724,704,700,692,672,652,620,576,540,504,456,404,368,324,276,240,200,152,108,76,32,-4,-28,-60,-96,-124,-148,-176,-192,-200,-220,-240,-244,-256,-268,-268,-264,-272,-272,-276,-296,-312,-312,-312,-316,-308,-304,-308,-304,-296,-304,-308,-296,-288,-292,-284,-276,-280,-272,-256,-260,-264,-252,-244,-248,-248,-248,-248,-240,-228,-232,-240,-232,-224,-228,-220,-216,-224,-224,-220,-228,-228,-212,-208,-216,-220,-212,-212,-208,-200,-204,-212,-208,-204,-212,-208,-204,-204,-200,-188,-188,-192,-176,-164,-164,-156,-144,-148,-148,-140,-140,-144,-136,-136,-144,-136,-132,-136,-144,-148,-160,-164,-160,-160,-160,-152,-148,-152,-156,-156,-176,-192,-188,-188,-188,-188,-188,-204,-216,-224,-236,-248,-248,-260,-280,-280,-276,-276,-272,-260,-264,-272,-264,-264,-276,-280,-276,-276,-272,-256,-256,-260,-256,-256,-260,-252,-252,-260,-260,-268,-292,-304,-292,-284,-268,-228,-176,-132,-60,60,204,380,604,816,988,1152,1292,1356,1336,1200,924,560,136,-336,-796,-1120,-1264,-1280,-1216,-1104,-984,-844,-672,-512,-376,-268,-200,-180,-172,-160,-148,-128,-92,-60,-44,-40,-48,-76,-88,-84,-92,-80,-44,-16,0,12,12,0,-8,-8,-12,-4,24,60,72,80,80,68,68,76,76,84,108,140,156,176,188,184,184,188,188,192,224,252,272,292,304,304,312,332,336,352,384,412,428,452,472,480,500,524,540,560,592,620,640,660,680,688,696,712,716,716,728,728,716,712,712,704,700,696,680,660,652,644,620,596,568,524,480,444,396,360,332,296,252,216,172,120,76,40,0,-40,-64,-92,-128,-148,-168,-196,-216,-232,-256,-280,-284,-292,-300,-308,-312,-320,-320,-316,-320,-324,-312,-304,-304,-296,-292,-304,-308,-300,-304,-308,-296,-284,-292,-288,-284,-284,-276,-268,-276,-280,-272,-264,-264,-252,-244,-248,-244,-240,-252,-260,-252,-244,-252,-248,-244,-248,-248,-240,-240,-244,-232,-228,-232,-224,-220,-224,-220,-208,-216,-224
2026-03-16 10:58:53,-216,-208,-212,-208,-204,-212,-212,-208,-216,-224,-216,-216,-216,-204,-196,-200,-188,-176,-180,-184,-176,-176,-180,-180,-176,-184,-180,-168,-168,-176,-168,-172,-180,-180,-172,-172,-164,-156,-164,-164,-160,-164,-176,-176,-172,-180,-188,-200,-224,-248,-252,-256,-264,-264,-264,-280,-284,-284,-292,-296,-288,-284,-288,-280,-268,-272,-264,-256,-260,-260,-244,-240,-244,-244,-240,-248,-244,-240,-248,-260,-268,-288,-312,-316,-304,-288,-244,-188,-140,-56,76,240,424,648,860,1024,1184,1324,1380,1348,1204,924,544,104,-372,-840,-1152,-1288,-1308,-1244,-1128,-992,-848,-684,-520,-388,-276,-200,-176,-172,-160,-148,-124,-80,-32,-16,-16,-28,-60,-84,-88,-80,-56,-20,12,28,36,32,8,0,4,8,16,40,64,68,72,72,60,56,72,80,88,116,144,156,168,184,180,180,192,204,216,248,280,296,316,336,340,344,364,376,392,424,460,476,500,524,532,544,572,596,616,652,688,704,724,744,740,744,760,768,772,784,796,796,804,804,792,784,784,780,760,744,724,692,660,620,560,500,460,420,376,340,304,252,208,164,104,56,20,-12,-56,-84,-112,-148,-172,-192,-228,-260,-276,-296,-320,-328,-340,-356,-360,-364,-380,-388,-376,-376,-384,-376,-372,-384,-380,-368,-376,-380,-372,-376,-388,-380,-372,-376,-364,-352,-352,-352,-344,-344,-348,-340,-328,-328,-324,-320,-328,-328,-312,-308,-316,-308,-300,-300,-292,-288,-296,-296,-284,-284,-284,-276,-276,-284,-284,-284,-296,-304,-292,-288,-292,-280,-276,-284,-276,-256,-256,-252,-236,-228,-232,-228,-224,-236,-236,-228,-236,-236,-228,-228,-236,-232,-232,-240,-240,-244,-260,-272,-256,-252,-256,-248,-236,-236,-232,-228,-244,-252,-240,-244,-256,-260,-260,-264,-260,-256,-272,-284,-280,-288,-300,-300,-300,-312,-312,-312,-324,-328,-320,-320,-324,-316,-308,-316,-308,-300,-308,-308,-296,-296,-300,-292,-288,-296,-300,-304,-316,-320,-308,-288,-252,-192,-132,-60,52,200,364,548,740,892,1016,1120,1152,1088,932,644,220,-240,-684,-1072,-1336,-1432,-1428,-1376,-1268,-1112,-944,-772,-600,-464,-364,-284,-236,-216,-184,-152,-124,-84,-40,-20,-24,-24,-32,-52,-56,-44,-36,-8,32,56,60,60,52,32,32,44,56,80,116,136,140,148,148,136,140,152,160,184,220,240,248,260,264,256,264,292,308,332,364,380,384,396,404,400,420,448,464,492,528,556,580,604,624,632,656,688,704,728,768,796,808,832,844,844,852,868,868,876,896,900,896,904,904,892,888,876,848,828,808,772,728,688,640,580,532,488,436,392
2026-03-16 10:58:54,348,296,244,208,160,108,68,36,-4,-40,-64,-100,-136,-160,-180,-204,-216,-228,-252,-268,-264,-272,-284,-280,-288,-308,-316,-320,-336,-344,-332,-332,-332,-324,-320,-328,-320,-308,-312,-316,-300,-296,-300,-296,-292,-300,-292,-280,-280,-276,-256,-252,-256,-248,-244,-248,-240,-228,-232,-224,-208,-208,-212,-200,-196,-196,-188,-184,-192,-192,-180,-180,-180,-172,-168,-176,-168,-160,-164,-156,-140,-140,-136,-124,-116,-120,-112,-108,-120,-124,-112,-120,-136,-136,-132,-132,-124,-124,-148,-160,-156,-160,-168,-156,-148,-156,-156,-152,-164,-172,-160,-164,-176,-180,-184,-204,-208,-208,-224,-232,-228,-236,-248,-248,-252,-260,-256,-248,-256,-260,-248,-244,-244,-232,-232,-240,-232,-228,-236,-232,-216,-216,-220,-208,-208,-220,-216,-220,-244,-256,-260,-276,-288,-268,-228,-184,-132,-56,48,192,372,556,716,864,1000,1104,1148,1104,940,652,272,-160,-612,-1000,-1264,-1376,-1360,-1272,-1156,-1004,-828,-664,-508,-360,-244,-180,-140,-124,-120,-100,-60,-28,0,20,24,12,8,4,-4,0,20,48,72,100,108,92,84,80,68,72,100,116,132,160,172,160,156,152,136,148,180,200,208,228,240,248,264,280,276,292,324,348,368,400,420,420,432,448,452,472,508,528,544,572,596,608,628,648,648,664,700,724,744,772,792,796,816,824,824,828,848,852,856,868,872,860,856,848,816,796,788,772,744,724,696,656,620,576,520,468,428,376,320,276,232,176,140,96,44,4,-16,-44,-84,-100,-124,-156,-176,-188,-212,-232,-236,-244,-252,-248,-248,-264,-276,-280,-300,-304,-296,-296,-296,-284,-276,-280,-268,-264,-280,-280,-268,-276,-280,-268,-260,-260,-252,-248,-256,-260,-248,-244,-240,-228,-224,-228,-224,-220,-228,-220,-204,-196,-196,-188,-188,-196,-196,-200,-208,-208,-196,-196,-192,-176,-168,-168,-152,-140,-144,-136,-124,-124,-128,-116,-112,-116,-108,-104,-112,-112,-104,-108,-124,-128,-136,-144,-144,-148,-160,-156,-140,-140,-144,-132,-128,-128,-124,-120,-128,-128,-128,-140,-156,-156,-160,-180,-180,-180,-192,-196,-192,-200,-216,-212,-212,-220,-212,-208,-220,-224,-216,-216,-228,-220,-216,-216,-204,-192,-196,-196,-184,-188,-196,-192,-204,-224,-228,-228,-240,-244,-224,-196,-160,-100,-12,100,256,428,608,776,924,1056,1152,1188,1128,964,680,280,-172,-600,-956,-1192,-1292,-1280,-1212,-1112,-964,-800,-652,-500,-356,-260,-204,-164,-140,-124,-92,-52,-20,8,40,44,24,16,4,0,20,44,60,88,116,120,112,108,96,84,96,112,116,136,172,188,188,196,200,196,212,232,244,268
2026-03-16 10:58:55,296,304,296,300,300,292,308,340,356,384,416,428,428,444,456,464,488,512,528,556,600,628,644,672,688,696,724,756,772,792,820,836,848,868,872,864,884,904,904,912,924,912,896,888,872,852,852,844,816,784,756,712,660,616,564,508,468,424,364,320,284,236,188,148,100,52,20,-4,-48,-80,-92,-116,-144,-156,-176,-200,-204,-208,-224,-236,-232,-244,-260,-260,-268,-280,-272,-272,-284,-284,-272,-276,-276,-272,-280,-284,-272,-268,-280,-284,-276,-276,-280,-272,-268,-268,-260,-252,-260,-252,-232,-224,-224,-212,-208,-212,-204,-204,-212,-204,-184,-188,-200,-192,-184,-184,-168,-160,-168,-164,-148,-148,-148,-132,-116,-120,-104,-92,-96,-96,-84,-84,-92,-88,-92,-100,-96,-92,-108,-104,-92,-96,-112,-120,-124,-136,-136,-140,-152,-148,-136,-136,-144,-132,-132,-144,-144,-148,-160,-160,-148,-156,-172,-168,-172,-184,-184,-192,-216,-224,-220,-228,-232,-220,-220,-232,-228,-228,-244,-244,-236,-232,-232,-224,-224,-232,-220,-220,-228,-232,-224,-232,-240,-244,-260,-272,-264,-264,-268,-240,-200,-156,-88,32,180,348,548,720,840,960,1056,1060,964,784,488,96,-304,-700,-1068,-1316,-1396,-1364,-1268,-1128,-976,-816,-644,-484,-356,-248,-168,-140,-140,-128,-108,-84,-48,-20,-12,-4,0,-8,-20,-16,-12,-4,24,48,52,56,68,56,40,40,48,52,76,96,100,108,120,116,112,120,128,136,164,180,184,192,208,208,208,224,236,248,268,288,296,312,336,344,352,376,396,412,440,468,480,504,532,548,564,596,620,632,664,696,704,720,744,748,748,764,776,780,800,808,796,796,804,796,780,776,760,736,724,700,660,628,596,552,496,448,392,336,292,244,184,136,100,56,12,-20,-68,-116,-140,-176,-216,-236,-248,-272,-292,-296,-304,-316,-320,-324,-344,-352,-348,-360,-380,-380,-384,-392,-384,-384,-392,-392,-388,-396,-400,-392,-384,-384,-376,-376,-392,-396,-384,-384,-388,-376,-376,-380,-368,-364,-376,-372,-364,-368,-372,-360,-360,-364,-352,-344,-352,-352,-340,-344,-348,-344,-344,-344,-332,-324,-332,-332,-320,-324,-328,-316,-316,-320,-312,-308,-312,-300,-280,-280,-272,-256,-252,-256,-244,-240,-252,-252,-248,-252,-252,-244,-240,-244,-244,-248,-268,-276,-276,-292,-304,-304,-312,-316,-304,-304,-316,-316,-308,-320,-328,-324,-332,-352,-352,-360,-376,-380,-380,-388,-400,-400,-412,-424,-412,-400,-408,-408,-400,-404,-404,-396,-396,-404,-400,-400,-408,-404,-388,-392,-396,-388,-392,-400,-396,-408,-436,-440,-432,-440,-436,-408,-372,-328,-256,-148,-16,156
2026-03-16 10:58:56,368,572,748,920,1076,1172,1196,1112,884,552,152,-300,-776,-1160,-1384,-1456,-1408,-1312,-1196,-1048,-876,-720,-580,-448,-364,-320,-292,-288,-288,-268,-228,-200,-172,-152,-156,-176,-188,-204,-224,-208,-172,-144,-116,-84,-76,-92,-100,-112,-124,-112,-88,-68,-52,-32,-28,-40,-44,-44,-40,-20,4,16,28,52,60,60,72,80,80,100,132,148,164,192,216,224,240,252,256,276,308,328,356,392,412,424,444,460,468,492,528,552,576,604,624,632,648,652,644,648,668,680,688,696,692,680,676,660,636,624,620,596,564,540,492,444,404,356,296,248,212,164,112,68,16,-36,-76,-124,-184,-224,-260,-300,-332,-340,-368,-400,-420,-440,-464,-472,-472,-480,-484,-480,-480,-488,-488,-488,-500,-496,-488,-496,-504,-496,-496,-504,-500,-500,-508,-500,-488,-496,-504,-500,-504,-512,-500,-496,-496,-484,-472,-480,-492,-492,-492,-484,-468,-460,-464,-452,-428,-428,-424,-408,-404,-404,-396,-396,-404,-408,-400,-404,-404,-396,-396,-396,-380,-376,-388,-392,-384,-376,-372,-368,-372,-380,-376,-380,-388,-376,-356,-352,-352,-344,-348,-356,-344,-332,-332,-320,-308,-304,-296,-280,-280,-284,-268,-256,-268,-276,-272,-280,-288,-292,-300,-308,-304,-300,-308,-312,-304,-308,-316,-308,-308,-312,-312,-316,-340,-348,-348,-356,-360,-356,-360,-364,-360,-368,-384,-380,-364,-368,-372,-372,-380,-392,-392,-384,-380,-380,-376,-396,-408,-408,-412,-420,-412,-396,-384,-364,-348,-352,-344,-320,-308,-296,-264,-240,-224,-168,-64,68,232,424,592,728,864,956,964,904,752,460,60,-360,-772,-1128,-1340,-1428,-1428,-1356,-1236,-1096,-940,-784,-648,-524,-420,-348,-320,-292,-256,-228,-196,-140,-96,-72,-56,-68,-96,-112,-116,-120,-100,-64,-44,-28,-16,-28,-52,-52,-44,-36,-20,8,32,48,60,60,48,48,56,56,68,96,112,132,156,160,148,148,160,168,180,212,236,256,276,292,308,336,360,372,392,424,456,480,508,520,524,548,572,588,608,644,672,692,716,724,720,736,760,772,776,800,812,816,828,824,804,796,792,772,748,736,712,676,648,616,572,532,492,444,392,360,316,268,228,184,124,80,40,0,-32,-56,-84,-104,-120,-140,-168,-180,-184,-200,-216,-216,-220,-228,-224,-224,-240,-244,-244,-256,-260,-248,-244,-236,-224,-220,-232,-224,-216,-216,-212,-192,-188,-184,-168,-164,-168,-156,-140,-140,-132,-96,-64,-48,-24,-8,0,12,36,48,60,80,80,80,96,100,92,104,120,120,120,128,124,120,124,124,124,136,144,136,136,152,152,152,160,168,164,168
2026-03-16 10:58:57,176,168,164,168,160,152,156,156,148,152,156,144,136,144,136,132,132,132,124,128,136,136,136,140,132,124,128,124,104,96,96,80,68,64,52,40,36,20,0,0,8,8,8,12,4,0,0,0,-8,-4,0,-4,-8,-4,-4,-4,0,0,-8,-4,0,-8,-16,-24,-36,-44,-28,-4,28,72,140,228,360,516,684,852,1008,1132,1228,1280,1264,1144,916,580,164,-256,-648,-952,-1120,-1156,-1100,-1000,-860,-700,-556,-408,-260,-148,-80,-28,0,12,32,68,104,136,172,184,168,160,148,136,136,160,176,196,220,228,220,212,204,192,196,220,236,256,280,292,280,276,276,268,276,296,312,332,364,372,368,376,388,384,392,416,444,464,492,504,504,520,536,540,552,580,604,628,664,688,696,720,748,760,784,820,848,876,912,920,920,932,948,944,952,976,984,984,996,996,980,980,980,956,940,928,900,868,844,816,764,720,680,628,576,536,488,436,400,352,296,260,220,172,128,96,56,20,4,-20,-52,-72,-84,-108,-120,-124,-140,-152,-152,-164,-184,-184,-176,-184,-192,-192,-196,-192,-184,-188,-200,-196,-196,-212,-212,-200,-192,-196,-192,-196,-200,-184,-172,-176,-172,-160,-160,-160,-148,-144,-148,-144,-140,-140,-136,-128,-128,-124,-116,-120,-128,-120,-112,-120,-120,-104,-104,-104,-88,-88,-96,-92,-84,-92,-92,-88,-92,-104,-100,-108,-120,-112,-100,-104,-96,-84,-92,-96,-80,-72,-72,-64,-56,-60,-60,-44,-52,-60,-56,-56,-64,-56,-48,-52,-52,-48,-56,-60,-60,-68,-76,-68,-60,-64,-64,-56,-52,-52,-48,-60,-72,-64,-60,-80,-92,-96,-112,-128,-128,-136,-144,-140,-140,-152,-156,-152,-156,-156,-148,-148,-160,-148,-140,-140,-136,-120,-120,-116,-104,-108,-120,-116,-116,-124,-124,-120,-128,-140,-144,-156,-164,-152,-120,-84,-36,28,120,256,436,632,836,1028,1192,1328,1428,1460,1384,1188,872,472,20,-440,-852,-1124,-1220,-1192,-1108,-988,-836,-684,-532,-376,-236,-140,-80,-44,-36,-32,-12,8,32,64,88,88,80,72,56,44,60,76,96,132,156,156,148,144,124,116,128,136,148,180,204,200,196,200,192,200,220,232,244,276,300,304,308,312,304,304,324,344,356,388,412,420,432,440,440,452,476,500,520,548,580,596,616,636,648,668,700,724,744,780,808,820,832,848,852,860,872,876,884,904,916,912,904,896,872,856,856,844,812,788,756,716,680,644,588,536,496,444,384,344,300,240,188,136,76,24,-4,-48,-92,-120
2026-03-16 10:58:58,-152,-192,-224,-240,-268,-288,-296,-316,-340,-340,-340,-352,-360,-352,-352,-352,-348,-356,-368,-360,-352,-360,-364,-356,-368,-376,-376,-380,-396,-404,-412,-428,-432,-428,-436,-436,-420,-420,-420,-400,-384,-384,-372,-360,-364,-368,-356,-332,-292,-240,-200,-192,-188,-200,-236,-268,-260,-244,-236,-236,-260,-308,-344,-368,-400,-420,-420,-428,-444,-444,-432,-424,-408,-384,-376,-368,-360,-364,-376,-376,-368,-368,-356,-336,-332,-328,-316,-320,-324,-300,-264,-240,-212,-180,-156,-132,-104,-92,-100,-112,-148,-208,-264,-312,-360,-388,-404,-428,-444,-444,-428,-412,-376,-332,-308,-296,-280,-284,-292,-284,-276,-280,-276,-260,-256,-260,-256,-268,-284,-280,-276,-292,-300,-300,-308,-304,-284,-284,-296,-292,-296,-324,-348,-348,-344,-324,-292,-276,-276,-280,-292,-320,-336,-340,-356,-372,-372,-376,-384,-384,-384,-388,-376,-352,-328,-284,-232,-180,-96,44,220,416,624,800,948,1088,1180,1160,1032,800,456,32,-404,-828,-1172,-1352,-1392,-1356,-1260,-1104,-940,-796,-656,-524,-424,-356,-308,-296,-300,-288,-260,-228,-184,-144,-120,-108,-100,-108,-116,-92,-64,-32,8,52,56,36,12,-24,-60,-52,-24,0,36,72,88,100,112,108,100,116,136,144,160,172,172,168,168,160,152,168,188,204,236,268,284,296,312,308,304,324,360,392,444,516,584,640,672,652,612,592,580,580,600,632,656,672,700,712,724,752,776,784,800,824,840,852,860,844,824,824,820,796,780,764,724,680,644,596,540,500,464,412,364,320,260,200,152,92,44,20,-4,-40,-68,-96,-132,-156,-164,-184,-200,-196,-192,-200,-200,-200,-216,-240,-252,-276,-288,-280,-268,-280,-288,-288,-288,-256,-208,-196,-224,-256,-296,-336,-356,-360,-368,-372,-364,-364,-360,-336,-308,-296,-280,-260,-256,-240,-224,-228,-236,-220,-200,-196,-188,-184,-200,-204,-196,-200,-212,-192,-172,-176,-172,-160,-160,-164,-164,-176,-184,-172,-168,-172,-168,-156,-160,-164,-152,-148,-144,-124,-104,-100,-88,-76,-80,-80,-72,-80,-92,-88,-88,-96,-92,-80,-88,-92,-88,-100,-112,-104,-100,-116,-124,-120,-128,-128,-116,-120,-124,-108,-100,-108,-108,-100,-116,-128,-132,-148,-168,-168,-172,-180,-180,-172,-176,-172,-164,-168,-176,-164,-156,-160,-152,-144,-156,-156,-144,-148,-156,-148,-148,-160,-156,-144,-144,-140,-132,-140,-156,-164,-168,-188,-192,-172,-140,-92,-36,28,136,296,476,664,852,1016,1152,1268,1320,1276,1128,868,480,32,-404,-788,-1064,-1188,-1200,-1160,-1064,-916,-752,-612,-468,-336,-236,-172,-120,-100,-88,-52,-12,20,68,108,116,108,96,76,64,84
2026-03-16 10:58:59,112,136,164,188,192,188,192,176,160,176,196,212,240,264,268,276,284,272,264,284,300,312,336,360,364,368,372,368,368,392,420,436,464,492,500,508,520,524,532,564,600,632,668,700,720,740,760,768,784,824,860,884,916,952,968,984,1008,1008,1008,1024,1044,1052,1064,1072,1064,1060,1064,1048,1032,1020,1004,972,952,932,892,848,808,748,684,640,592,540,492,440,376,324,276,224,164,124,80,32,4,-8,-40,-60,-72,-88,-112,-120,-128,-156,-168,-168,-180,-188,-184,-192,-204,-196,-184,-184,-180,-176,-180,-184,-184,-196,-212,-212,-204,-208,-208,-208,-212,-212,-204,-208,-212,-196,-184,-188,-180,-176,-180,-176,-160,-152,-144,-128,-116,-112,-104,-96,-96,-92,-84,-96,-104,-96,-88,-92,-84,-72,-76,-76,-68,-80,-92,-92,-92,-100,-92,-80,-84,-76,-64,-72,-80,-76,-84,-100,-104,-96,-96,-84,-64,-60,-60,-44,-28,-24,-16,-8,-20,-20,-20,-32,-44,-36,-28,-32,-28,-16,-12,-12,-12,-24,-40,-44,-44,-56,-52,-52,-64,-64,-60,-68,-76,-68,-68,-84,-92,-92,-100,-104,-100,-116,-132,-136,-136,-144,-140,-132,-136,-128,-120,-132,-144,-128,-120,-124,-120,-116,-124,-124,-116,-128,-136,-124,-116,-124,-124,-120,-132,-140,-148,-160,-164,-140,-100,-56,-4,56,152,288,460,644,828,1000,1148,1276,1360,1352,1236,996,640,208,-240,-664,-988,-1168,-1208,-1160,-1072,-940,-776,-628,-488,-340,-212,-132,-80,-48,-40,-20,16,48,84,124,144,136,128,116,96,100,124,144,172,208,224,212,204,196,176,176,200,212,228,256,272,264,260,260,252,260,288,304,320,352,368,368,372,372,368,380,404,420,444,476,496,504,516,532,536,552,580,600,624,664,696,712,736,752,760,776,808,832,856,892,920,928,944,956,960,968,984,988,1000,1028,1036,1032,1032,1028,1008,992,976,952,924,904,876,836,808,772,716,668,628,572,512,472,424,364,320,276,220,168,136,92,56,36,12,-8,-32,-52,-84,-96,-96,-104,-116,-116,-124,-144,-148,-152,-164,-172,-172,-180,-184,-180,-184,-188,-188,-180,-184,-180,-168,-172,-176,-168,-164,-172,-168,-168,-168,-164,-152,-152,-156,-148,-152,-156,-148,-144,-148,-148,-140,-144,-144,-128,-120,-128,-124,-116,-120,-116,-108,-108,-116,-108,-108,-116,-112,-112,-116,-112,-108,-112,-116,-108,-104,-112,-108,-108,-116,-112,-108,-116,-120,-108,-100,-104,-96,-84,-88,-84,-68,-64,-60,-56,-60,-68,-60,-52,-56,-52,-48,-60,-76,-76,-80,-92,-88,-84,-88,-84,-72,-80,-84,-76
2026-03-16 10:59:00,-72,-76,-68,-64,-72,-84,-92,-104,-108,-100,-100,-116,-128,-132,-140,-140,-132,-136,-144,-136,-132,-140,-140,-132,-144,-148,-148,-156,-164,-152,-148,-148,-140,-132,-136,-136,-132,-156,-180,-180,-176,-172,-152,-112,-72,-16,64,168,304,480,676,856,1016,1168,1296,1368,1352,1224,972,624,208,-244,-676,-996,-1160,-1192,-1140,-1060,-944,-792,-644,-508,-368,-244,-168,-112,-76,-60,-48,-20,4,32,64,84,80,76,72,60,64,92,116,132,152,164,160,152,144,128,120,132,148,156,172,180,176,176,184,180,184,204,228,248,268,284,284,284,296,296,300,324,344,364,396,424,436,456,480,492,508,532,556,572,600,628,644,664,684,700,716,752,780,800,832,860,868,876,892,896,908,936,960,968,988,1000,996,988,984,964,948,940,924,896,872,844,804,760,704,632,568,520,464,404,352,312,260,220,180,128,80,48,8,-28,-52,-84,-120,-144,-156,-176,-196,-200,-212,-232,-244,-252,-268,-268,-260,-268,-284,-284,-284,-288,-276,-264,-264,-256,-252,-260,-268,-264,-264,-280,-276,-268,-272,-276,-276,-284,-284,-268,-256,-260,-260,-264,-272,-268,-252,-252,-244,-224,-216,-220,-212,-204,-208,-212,-212,-216,-212,-204,-200,-204,-196,-188,-196,-200,-196,-204,-216,-216,-212,-200,-172,-140,-128,-116,-104,-112,-120,-120,-128,-140,-136,-124,-112,-96,-84,-88,-96,-100,-116,-136,-148,-156,-176,-176,-160,-152,-152,-140,-136,-148,-148,-144,-148,-148,-144,-152,-160,-156,-160,-168,-168,-172,-184,-192,-192,-212,-228,-220,-212,-212,-204,-200,-208,-200,-184,-188,-196,-192,-188,-196,-192,-184,-188,-184,-176,-188,-200,-200,-208,-224,-224,-220,-228,-220,-188,-156,-112,-40,48,176,340,528,712,872,1016,1132,1212,1232,1152,948,628,224,-204,-596,-904,-1100,-1176,-1168,-1112,-1020,-876,-716,-572,-432,-312,-240,-204,-168,-148,-128,-88,-40,-4,36,64,60,44,40,32,24,32,52,72,100,120,116,104,108,104,100,124,152,160,176,192,184,176,180,184,184,200,220,236,268,296,296,288,300,312,324,348,376,392,420,444,444,448,472,492,500,520,544,564,596,628,644,656,684,712,740,780,816,836,864,884,884,892,916,920,912,924,944,952,952,952,944,944,952,936,908,888,872,856,840,812,752,696,656,604,544,492,444,384,336,288,232,180,144,100,52,24,-4,-48,-84,-112,-148,-184,-208,-236,-264,-272,-272,-284,-288,-292,-304,-308,-300,-296,-304,-312,-324,-340,-340,-340,-352,-352,-340,-336,-340,-328,-320,-324,-320,-316,-328,-336,-332
2026-03-16 10:59:01,-336,-344,-328,-312,-320,-316,-308,-308,-312,-304,-300,-296,-280,-272,-276,-268,-260,-264,-264,-248,-236,-228,-216,-212,-216,-208,-200,-208,-212,-200,-200,-208,-200,-192,-188,-176,-168,-176,-184,-168,-160,-168,-164,-168,-184,-192,-184,-184,-176,-164,-168,-176,-176,-172,-180,-176,-172,-180,-184,-184,-192,-196,-176,-164,-168,-168,-172,-192,-208,-208,-228,-252,-260,-276,-304,-304,-284,-284,-288,-280,-276,-288,-288,-284,-276,-260,-260,-280,-300,-292,-284,-276,-264,-252,-248,-236,-224,-232,-232,-220,-220,-240,-264,-292,-320,-316,-292,-256,-192,-100,-24,48,160,304,468,664,840,956,1060,1148,1172,1132,1016,772,408,4,-412,-808,-1096,-1224,-1264,-1236,-1152,-1032,-900,-764,-640,-536,-432,-344,-296,-276,-244,-212,-180,-124,-68,-48,-36,-20,-16,-12,0,12,20,36,56,56,64,84,92,76,80,92,108,148,180,184,180,196,204,196,192,184,176,196,228,244,264,284,292,296,316,336,352,396,440,456,456,456,440,428,444,480,520,568,608,620,636,668,696,720,748,772,792,828,872,896,920,948,956,956,972,988,980,980,996,992,964,928,896,888,916,940,940,932,924,888,836,776,712,668,632,580,516,468,424,364,312,272,220,152,92,28,-24,-56,-92,-132,-168,-200,-240,-268,-268,-264,-272,-272,-272,-292,-320,-332,-340,-336,-312,-296,-296,-288,-284,-320,-348,-336,-320,-320,-328,-356,-380,-376,-360,-348,-328,-308,-324,-364,-400,-428,-420,-360,-300,-272,-240,-216,-216,-216,-208,-208,-216,-224,-232,-244,-252,-248,-256,-264,-260,-264,-268,-248,-236,-240,-224,-192,-180,-176,-168,-172,-184,-180,-180,-184,-180,-168,-180,-184,-168,-152,-156,-152,-160,-176,-176,-156,-144,-148,-148,-168,-192,-184,-160,-152,-148,-148,-168,-180,-176,-180,-204,-220,-244,-288,-312,-300,-284,-264,-232,-224,-252,-280,-296,-308,-296,-272,-272,-284,-276,-268,-272,-272,-268,-272,-268,-256,-260,-280,-292,-288,-276,-260,-252,-276,-300,-320,-332,-328,-288,-220,-156,-76,16,128,264,428,616,792,948,1088,1196,1256,1240,1112,864,504,76,-368,-772,-1060,-1224,-1292,-1284,-1224,-1088,-896,-716,-564,-420,-308,-232,-180,-156,-160,-152,-124,-100,-68,-32,-28,-36,-48,-64,-92,-92,-56,-12,20,48,64,64,68,76,64,56,64,80,100,140,160,164,176,168,128,108,128,156,184,220,236,228,232,244,248,264,292,312,332,352,356,352,368,404,432,472,512,532,540,544,556,584,640,692,712,728,752,760,768,780,784,784,804,812,796,804,836,872,908,944,952,936,928,908,872,844,832
2026-03-16 10:59:02,816,788,764,728,688,660,616,540,460,384,304,232,176,120,56,4,-32,-84,-136,-176,-216,-240,-244,-264,-300,-316,-316,-328,-332,-328,-336,-344,-336,-332,-344,-364,-380,-404,-400,-376,-360,-352,-340,-340,-348,-352,-360,-392,-412,-420,-424,-412,-380,-364,-360,-352,-348,-360,-360,-356,-360,-372,-368,-372,-380,-372,-360,-364,-372,-376,-396,-408,-392,-376,-380,-376,-368,-368,-364,-344,-336,-336,-328,-324,-328,-312,-296,-300,-296,-272,-260,-260,-256,-256,-256,-232,-224,-232,-232,-228,-244,-272,-276,-288,-300,-284,-272,-276,-268,-248,-240,-236,-232,-252,-288,-292,-284,-292,-288,-280,-296,-316,-316,-316,-320,-308,-312,-344,-364,-360,-356,-360,-360,-360,-364,-352,-336,-332,-316,-300,-300,-296,-276,-280,-312,-336,-368,-420,-460,-468,-484,-500,-516,-532,-544,-528,-504,-476,-408,-320,-248,-164,-36,108,272,464,640,776,904,1004,1020,952,804,524,140,-276,-700,-1080,-1300,-1352,-1320,-1244,-1132,-1012,-908,-804,-708,-636,-560,-480,-424,-384,-344,-324,-312,-284,-264,-260,-248,-232,-228,-224,-200,-192,-196,-180,-176,-188,-180,-160,-152,-140,-108,-92,-84,-64,-52,-56,-48,-32,-32,-36,-28,-16,-4,24,48,48,52,60,64,72,92,108,120,148,176,184,200,224,240,252,272,292,308,328,336,340,364,404,428,452,492,528,556,596,624,624,628,648,664,688,728,756,764,776,768,740,724,720,704,692,692,676,648,628,600,552,508,472,420,360,312,252,180,124,76,20,-20,-48,-84,-120,-148,-172,-200,-220,-248,-308,-344,-356,-384,-416,-420,-420,-428,-432,-436,-452,-460,-464,-480,-496,-488,-484,-488,-480,-492,-520,-532,-524,-524,-528,-516,-504,-500,-484,-476,-492,-500,-496,-500,-508,-504,-508,-520,-512,-504,-500,-492,-480,-480,-476,-456,-444,-444,-432,-424,-436,-440,-424,-412,-404,-384,-372,-372,-360,-352,-364,-368,-364,-364,-368,-364,-364,-360,-348,-344,-360,-376,-376,-388,-404,-408,-416,-424,-416,-416,-428,-432,-424,-428,-432,-420,-412,-412,-400,-400,-420,-432,-432,-440,-448,-440,-444,-460,-464,-480,-508,-516,-512,-512,-508,-492,-480,-472,-456,-452,-464,-468,-464,-476,-476,-448,-428,-420,-404,-400,-420,-432,-440,-468,-508,-536,-560,-576,-576,-568,-548,-504,-440,-344,-200,-16,172,376,584,764,904,1012,1068,1036,904,664,308,-100,-528,-944,-1256,-1400,-1420,-1380,-1304,-1188,-1072,-964,-856,-760,-684,-608,-540,-496,-464,-420,-392,-376,-356,-352,-360,-356,-336,-324,-312,-292,-288,-288,-272,-264,-264,-256,-240,-232,-228,-216,-216,-212,-192,-184,-192,-184,-168,-164,-156,-140,-136,-132,-108,-96,-104,-100,-80
2026-03-16 10:59:03,-72,-56,-32,-24,-20,0,8,16,48,84,100,112,132,148,176,228,272,292,316,344,364,380,408,432,452,488,508,508,516,536,552,568,588,600,612,632,648,636,632,636,624,608,596,564,532,500,456,392,340,292,236,180,148,104,56,16,-24,-84,-132,-168,-220,-264,-292,-332,-376,-404,-436,-476,-496,-508,-536,-560,-572,-584,-592,-584,-584,-596,-596,-588,-608,-632,-636,-628,-616,-592,-580,-596,-608,-612,-616,-616,-608,-608,-608,-604,-604,-616,-612,-600,-596,-588,-572,-572,-572,-564,-564,-568,-552,-544,-552,-556,-544,-536,-528,-508,-500,-512,-520,-520,-520,-504,-472,-452,-440,-416,-408,-420,-420,-408,-400,-388,-368,-352,-344,-340,-344,-360,-364,-360,-364,-372,-364,-364,-360,-348,-344,-352,-348,-340,-356,-372,-384,-396,-404,-400,-392,-392,-376,-352,-348,-348,-344,-352,-360,-356,-360,-368,-364,-368,-384,-388,-384,-388,-400,-404,-420,-436,-432,-428,-448,-464,-464,-472,-472,-460,-452,-460,-452,-440,-448,-448,-440,-444,-452,-456,-464,-480,-480,-476,-484,-496,-488,-484,-484,-468,-440,-400,-348,-276,-172,-32,148,360,588,800,972,1116,1224,1252,1172,980,668,252,-192,-656,-1084,-1356,-1440,-1412,-1336,-1220,-1088,-980,-880,-776,-688,-620,-556,-496,-464,-436,-400,-376,-360,-328,-304,-300,-288,-272,-272,-272,-264,-252,-236,-216,-216,-236,-236,-216,-208,-196,-164,-148,-136,-112,-92,-92,-88,-80,-80,-80,-72,-64,-52,-28,-16,-20,-12,0,0,0,8,16,32,68,96,104,116,136,144,164,200,224,244,272,292,312,356,408,436,464,504,528,560,596,620,632,656,680,692,708,732,744,748,760,756,740,736,732,716,708,696,672,652,636,600,548,504,464,404,344,284,212,148,104,60,8,-20,-52,-108,-156,-196,-240,-268,-280,-304,-336,-356,-376,-412,-424,-424,-432,-440,-432,-444,-468,-472,-468,-480,-488,-488,-496,-492,-484,-492,-504,-496,-496,-512,-512,-500,-492,-484,-472,-476,-480,-460,-440,-448,-452,-436,-432,-432,-416,-412,-416,-412,-404,-400,-384,-368,-372,-380,-376,-376,-380,-372,-364,-368,-372,-364,-360,-348,-328,-328,-332,-324,-324,-336,-344,-332,-320,-308,-284,-280,-292,-292,-272,-252,-232,-224,-232,-240,-244,-252,-260,-252,-240,-248,-252,-248,-248,-236,-224,-224,-232,-236,-252,-272,-276,-260,-252,-244,-232,-228,-232,-216,-184,-184,-196,-208,-232,-252,-260,-280,-300,-300,-300,-312,-316,-320,-332,-336,-328,-336,-352,-352,-348,-356,-352,-328,-320,-316,-308,-308,-320,-320,-320,-328,-320,-300,-296,-300,-300,-312,-336,-336,-324,-304,-260,-200,-136,-36,116,296,504,744,964
2026-03-16 10:59:04,1140,1312,1444,1492,1448,1292,980,568,132,-336,-792,-1088,-1204,-1224,-1172,-1068,-956,-852,-736,-620,-512,-412,-320,-260,-220,-184,-168,-168,-164,-152,-148,-128,-100,-88,-80,-64,-64,-68,-52,-40,-36,-32,-32,-44,-52,-44,-40,-36,-20,-8,-8,0,16,24,36,44,40,32,56,88,104,120,136,144,160,184,188,188,208,232,240,252,272,280,292,320,348,376,408,440,464,496,528,552,576,612,632,648,684,720,744,768,788,788,808,836,840,828,836,840,840,852,864,856,852,864,860,840,828,800,744,688,644,592,548,508,436,352,292,236,172,112,68,24,-8,-28,-56,-100,-132,-152,-184,-208,-224,-248,-272,-288,-324,-356,-360,-356,-356,-352,-356,-376,-376,-344,-324,-320,-320,-328,-356,-380,-396,-412,-420,-420,-440,-452,-432,-400,-372,-352,-348,-368,-388,-384,-384,-376,-356,-348,-348,-336,-320,-320,-320,-328,-352,-376,-376,-360,-352,-340,-312,-288,-268,-256,-256,-272,-304,-336,-368,-364,-340,-312,-280,-256,-268,-288,-300,-300,-300,-288,-256,-224,-200,-188,-208,-236,-236,-236,-256,-256,-220,-180,-156,-164,-192,-200,-176,-156,-160,-168,-192,-224,-232,-220,-208,-180,-140,-112,-108,-96,-76,-92,-128,-152,-176,-192,-188,-188,-208,-200,-184,-216,-264,-272,-248,-216,-184,-160,-164,-180,-168,-160,-164,-140,-124,-132,-136,-132,-132,-144,-164,-184,-208,-216,-228,-264,-272,-256,-248,-240,-240,-248,-268,-300,-336,-324,-264,-220,-204,-196,-212,-256,-272,-268,-296,-316,-300,-276,-268,-240,-204,-188,-180,-148,-104,-68,-28,40,168,348,552,756,952,1136,1292,1384,1404,1332,1180,940,596,188,-228,-628,-928,-1076,-1092,-1048,-956,-824,-688,-572,-480,-420,-376,-312,-232,-188,-176,-164,-140,-96,-48,-8,16,32,56,92,116,132,140,128,136,120,52,0,4,40,88,156,212,244,272,292,284,264,268,268,240,224,240,276,316,316,280,276,308,320,316,320,312,304,320,364,388,384,392,412,452,508,556,592,624,656,672,676,700,716,724,760,808,836,872,900,900,892,892,888,892,912,936,952,976,1024,1072,1104,1112,1056,984,960,948,932,940,952,948,928,904,852,772,692,612,544,516,500,448,368,308,264,224,192,168,136,108,88,40,-8,-32,-52,-76,-80,-72,-96,-136,-176,-216,-228,-196,-160,-144,-124,-104,-108,-120,-140,-180,-204,-188,-168,-164,-144,-128,-128,-136,-156,-196,-228,-224,-208,-192,-156,-108,-104,-108,-104,-128,-160,-160,-148,-148,-144,-140,-132,-112,-84,-80,-84,-104,-132,-140,-116,-88,-76,-68,-52,-56,-64,-64,-68
2026-03-16 10:59:05,-80,-76,-76,-88,-80,-52,-36,-12,28,68,92,104,96,68,48,32,20,16,40,52,40,40,60,56,56,68,64,48,48,40,32,56,84,72,48,32,16,12,24,28,20,8,4,0,0,4,0,-24,-36,-40,-48,-48,-44,-48,-48,-44,-48,-56,-52,-44,-44,-32,-12,-4,4,16,12,20,40,40,24,16,-4,-44,-60,-56,-56,-64,-72,-60,-20,44,120,208,348,532,728,932,1124,1276,1400,1488,1512,1440,1264,964,556,124,-260,-604,-832,-908,-892,-840,-744,-616,-504,-404,-296,-192,-108,-20,56,100,140,164,164,164,192,212,216,228,244,240,240,252,268,292,316,336,352,376,396,396,392,392,384,392,412,424,432,452,468,464,468,484,496,512,544,572,588,608,620,616,620,624,612,608,636,664,684,716,756,784,816,848,864,872,896,920,936,964,1000,1024,1060,1104,1132,1160,1196,1208,1212,1224,1232,1248,1280,1312,1336,1360,1388,1404,1404,1400,1380,1336,1308,1284,1252,1228,1224,1204,1160,1116,1072,1020,976,936,864,784,712,640,576,532,492,440,400,368,320,272,244,220,192,164,128,92,88,100,100,100,116,124,112,108,100,84,88,100,100,104,116,104,80,72,72,72,88,108,112,116,120,100,56,28,4,-32,-52,-60,-68,-72,-52,-36,-28,-20,-12,-4,20,40,44,52,72,72,64,84,112,120,132,152,148,136,132,132,124,124,132,140,152,160,148,144,156,152,140,140,144,132,128,128,124,128,144,156,160,180,188,172,156,156,148,148,164,180,200,220,232,232,244,268,272,272,288,292,284,296,304,300,304,308,292,280,288,292,288,296,304,292,276,256,232,220,224,232,232,232,220,204,212,220,212,208,228,244,248,264,276,264,256,252,236,224,232,224,208,208,216,208,196,188,168,160,168,160,148,156,168,176,192,196,180,164,168,152,120,112,116,116,128,140,136,148,184,224,272,336,400,472,584,732,888,1072,1268,1420,1548,1680,1768,1756,1664,1456,1088,652,224,-204,-564,-756,-804,-780,-704,-604,-516,-424,-328,-232,-132,-16,68,132,212,284,320,356,400,420,416,420,424,420,420,416,396,400,420,428,420,424,424,412,416,420,416,428,456,472,476,496,508,492,480,472,440,416,408,408,420,464,504,532,572,616,632,648,668,676,696,740,780,808,832,852,848,852,876,892,904,928,944,952,968,988,996,1012,1044,1068,1084,1124,1156,1184,1220,1252,1248,1240,1236,1212
2026-03-16 10:59:06,1180,1156,1120,1076,1064,1068,1064,1072,1092,1096,1092,1084,1052,992,944,888,808,744,704,656,612,576,528,472,420,372,304,252,220,180,136,120,96,52,24,4,-24,-56,-76,-96,-104,-96,-104,-124,-120,-108,-124,-128,-116,-112,-104,-88,-80,-64,-28,0,0,-8,-12,-40,-68,-72,-80,-92,-92,-92,-112,-116,-100,-88,-88,-76,-76,-84,-76,-68,-80,-84,-76,-84,-92,-84,-80,-88,-68,-52,-48,-40,-20,-16,-16,0,4,0,0,-8,-36,-52,-40,-40,-44,-44,-44,-44,-32,-24,-32,-40,-28,-24,-16,0,12,8,8,8,0,0,16,20,32,64,80,80,104,128,120,112,116,100,80,88,100,108,112,108,72,32,0,-56,-108,-120,-120,-112,-84,-52,-32,-8,8,0,-4,0,-4,-28,-40,-48,-72,-76,-68,-68,-64,-48,-48,-64,-72,-84,-112,-120,-96,-80,-68,-48,-52,-72,-72,-64,-68,-60,-44,-40,-36,-20,-32,-52,-52,-36,-20,20,84,144,232,376,548,720,924,1112,1240,1348,1456,1492,1452,1356,1136,784,376,-40,-464,-808,-992,-1040,-1000,-904,-804,-704,-600,-512,-440,-348,-244,-160,-92,-24,20,44,72,92,100,124,152,160,168,196,212,208,216,228,224,228,244,248,244,256,272,280,296,308,304,312,328,336,336,340,332,324,344,364,364,376,396,400,408,432,432,428,440,448,452,460,480,504,540,584,608,620,652,680,688,704,728,744,776,824,852,868,896,916,924,948,988,1020,1040,1056,1056,1064,1084,1088,1080,1092,1116,1116,1112,1124,1116,1096,1072,1036,984,944,908,860,812,772,720,668,632,592,524,460,416,376,344,304,240,180,152,128,88,64,60,44,24,16,0,-20,-28,-48,-84,-100,-72,-32,0,36,40,24,8,-20,-68,-96,-108,-128,-160,-196,-244,-280,-292,-304,-320,-316,-296,-296,-296,-284,-280,-284,-272,-260,-256,-240,-220,-216,-208,-196,-200,-212,-204,-208,-220,-216,-196,-188,-188,-180,-184,-184,-176,-188,-212,-224,-216,-212,-208,-200,-196,-192,-184,-168,-140,-84,-24,-8,-20,-52,-116,-184,-228,-264,-296,-308,-304,-304,-296,-280,-272,-264,-252,-244,-244,-228,-212,-216,-224,-212,-208,-208,-196,-196,-212,-212,-196,-196,-200,-192,-192,-184,-160,-148,-156,-160,-172,-200,-212,-200,-188,-188,-176,-172,-188,-192,-188,-192,-184,-164,-168,-180,-188,-204,-236,-256,-268,-292,-308,-304,-296,-296,-284,-296,-324,-328,-312,-320,-328,-324,-324,-332,-320,-308,-320,-320,-312,-320,-328,-324,-336,-336,-308,-272,-228,-164,-104,-92,-128,-184,-268,-348,-388,-408,-404,-368,-308,-240
2026-03-16 10:59:07,-132,20,192,384,584,744,872,980,1032,996,888,688,376,4,-360,-708,-988,-1128,-1152,-1112,-1028,-896,-768,-672,-604,-564,-540,-512,-488,-484,-480,-476,-468,-452,-416,-380,-360,-324,-292,-276,-260,-240,-228,-220,-204,-196,-196,-188,-176,-172,-160,-140,-132,-128,-112,-96,-92,-76,-40,-20,-4,20,28,20,16,4,-4,8,32,48,76,116,140,144,156,160,160,168,184,188,212,248,272,300,344,368,368,380,392,396,408,448,492,540,596,632,660,704,752,772,784,796,780,748,736,712,680,680,700,704,704,712,708,696,688,668,632,612,596,564,524,484,444,400,360,312,248,200,164,112,72,40,0,-28,-36,-44,-56,-72,-96,-116,-124,-136,-176,-236,-292,-368,-448,-500,-516,-524,-524,-508,-492,-476,-448,-432,-432,-428,-412,-404,-396,-384,-384,-384,-376,-376,-392,-392,-392,-396,-396,-380,-372,-360,-344,-328,-308,-268,-228,-220,-236,-260,-296,-332,-348,-360,-368,-348,-336,-344,-356,-368,-388,-404,-392,-376,-372,-360,-344,-340,-332,-328,-336,-336,-320,-316,-328,-324,-316,-320,-316,-300,-288,-268,-232,-208,-212,-212,-224,-244,-248,-232,-216,-196,-168,-172,-196,-212,-216,-224,-220,-200,-200,-208,-216,-236,-272,-292,-312,-328,-328,-308,-296,-276,-252,-248,-256,-252,-252,-264,-260,-260,-268,-276,-260,-252,-248,-220,-204,-208,-192,-160,-152,-176,-208,-264,-336,-384,-412,-420,-400,-368,-348,-336,-320,-328,-356,-360,-364,-376,-376,-360,-356,-356,-344,-344,-356,-348,-336,-328,-296,-236,-192,-140,-44,92,260,472,696,888,1048,1176,1236,1224,1148,964,664,292,-96,-492,-836,-1056,-1156,-1168,-1108,-1040,-960,-864,-764,-672,-576,-476,-396,-332,-268,-232,-220,-196,-168,-160,-144,-120,-112,-104,-80,-76,-80,-72,-60,-60,-60,-52,-52,-52,-32,-24,-24,-8,12,24,40,72,96,128,164,164,148,148,144,124,116,116,100,80,68,52,40,56,76,88,120,164,188,212,248,268,284,320,360,388,428,468,488,508,540,568,604,656,696,716,736,748,748,768,808,820,808,796,776,736,712,708,696,688,692,680,664,660,656,636,620,608,576,536,500,444,380,336,296,244,204,172,132,92,64,16,-24,-52,-80,-120,-148,-168,-192,-212,-220,-240,-264,-260,-252,-260,-272,-292,-332,-368,-388,-416,-444,-452,-448,-444,-440,-436,-448,-456,-452,-464,-480,-468,-452,-448,-436,-420,-420,-404,-376,-368,-372,-356,-348,-352,-336,-312,-304,-292,-280,-300,-324,-328,-336,-356,-360,-352,-356,-352,-340,-348,-368,-368,-368,-376,-368,-352,-352,-348,-340,-340,-348,-340,-336,-336
2026-03-16 10:59:08,-320,-296,-292,-288,-272,-268,-268,-248,-228,-224,-224,-232,-264,-288,-296,-316,-340,-340,-336,-344,-336,-316,-312,-312,-300,-308,-324,-324,-324,-320,-304,-284,-272,-252,-236,-236,-240,-232,-224,-216,-188,-144,-104,-72,-64,-88,-116,-128,-152,-200,-236,-268,-308,-332,-332,-332,-324,-292,-272,-264,-248,-228,-228,-224,-220,-232,-232,-212,-196,-188,-164,-132,-128,-132,-136,-160,-188,-196,-208,-236,-252,-276,-312,-336,-340,-364,-384,-376,-360,-352,-336,-308,-292,-276,-260,-264,-272,-256,-248,-252,-244,-236,-240,-236,-228,-236,-232,-208,-168,-128,-76,0,96,232,404,592,784,972,1136,1260,1340,1332,1208,980,656,256,-152,-536,-864,-1076,-1148,-1124,-1064,-972,-872,-796,-724,-628,-524,-424,-328,-256,-208,-156,-108,-92,-96,-84,-76,-80,-68,-44,-16,12,36,28,20,32,44,40,52,60,56,56,52,28,8,8,4,-16,-20,-16,-20,-16,0,8,20,52,76,92,116,140,152,176,204,216,224,252,268,276,296,320,324,336,368,404,444,492,528,548,568,588,592,596,608,604,604,608,596,584,608,644,664,688,708,708,712,732,744,748,772,796,800,808,812,792,780,780,764,736,716,688,640,592,540,472,420,404,392,380,372,340,272,196,120,24,-48,-96,-136,-180,-208,-240,-284,-316,-336,-364,-380,-376,-376,-384,-376,-360,-356,-352,-344,-360,-372,-368,-360,-360,-344,-336,-348,-352,-344,-356,-364,-352,-340,-340,-332,-320,-304,-280,-256,-252,-260,-256,-272,-296,-308,-324,-340,-336,-308,-280,-252,-224,-236,-276,-320,-348,-372,-364,-348,-348,-344,-324,-312,-312,-304,-300,-300,-288,-276,-292,-296,-280,-272,-268,-236,-196,-184,-184,-184,-188,-184,-168,-168,-192,-212,-248,-296,-316,-324,-340,-348,-324,-308,-300,-272,-248,-244,-244,-240,-248,-256,-236,-224,-220,-204,-196,-204,-212,-216,-232,-248,-236,-224,-220,-208,-200,-212,-212,-208,-220,-216,-188,-164,-140,-108,-96,-116,-144,-180,-244,-304,-340,-360,-352,-316,-288,-288,-284,-288,-312,-332,-332,-332,-320,-284,-256,-244,-236,-236,-252,-264,-256,-260,-272,-268,-260,-264,-260,-264,-268,-240,-180,-128,-84,-44,-20,0,76,188,320,504,712,888,1040,1172,1240,1208,1084,836,464,48,-340,-708,-980,-1104,-1128,-1088,-1008,-908,-820,-724,-600,-472,-356,-244,-164,-128,-104,-100,-120,-136,-132,-124,-112,-84,-64,-72,-76,-72,-80,-80,-68,-60,-56,-32,-12,-4,8,20,20,24,48,60,56,68,76,72,88,108,108,116,136,140,136,148,160,172,200,216,212,216,240,256,268,288,304,312,332,352,352,364,404,432,452
2026-03-16 10:59:09,480,504,520,548,580,600,620,660,680,692,720,744,744,756,772,776,780,800,820,828,844,848,832,828,828,804,792,792,768,732,696,648,600,572,540,484,424,368,296,216,152,88,28,-4,-24,-64,-96,-108,-132,-164,-184,-204,-236,-256,-272,-300,-320,-324,-336,-336,-312,-300,-304,-304,-308,-312,-296,-280,-288,-308,-324,-344,-376,-396,-412,-432,-444,-440,-448,-448,-428,-412,-412,-392,-376,-380,-376,-352,-328,-312,-288,-256,-224,-196,-168,-128,-36,72,128,132,136,104,8,-108,-244,-392,-508,-584,-632,-648,-608,-564,-540,-504,-464,-440,-408,-364,-344,-332,-308,-292,-288,-272,-256,-256,-248,-228,-224,-224,-208,-208,-216,-208,-204,-216,-216,-216,-224,-216,-200,-196,-204,-200,-200,-220,-228,-220,-220,-224,-216,-216,-228,-228,-232,-252,-252,-240,-232,-228,-208,-192,-200,-200,-204,-224,-232,-224,-228,-244,-248,-260,-268,-252,-240,-236,-212,-180,-172,-180,-180,-200,-236,-260,-288,-332,-348,-344,-352,-360,-352,-348,-356,-348,-336,-348,-344,-320,-304,-284,-232,-176,-128,-56,40,160,320,520,724,916,1108,1288,1428,1484,1380,1092,672,176,-340,-816,-1168,-1368,-1432,-1388,-1292,-1188,-1060,-924,-804,-688,-552,-440,-356,-284,-240,-220,-192,-160,-144,-132,-104,-88,-80,-68,-60,-64,-48,-28,-20,-8,8,12,8,12,12,4,8,20,24,32,52,60,60,72,76,68,76,104,124,144,168,180,180,192,196,188,204,232,244,264,292,300,300,316,324,324,340,372,392,416,456,484,500,528,552,560,588,632,660,684,720,744,756,776,784,780,792,820,832,844,868,868,856,856,848,820,812,812,792,768,752,720,676,636,580,508,452,412,356,300,264,212,152,108,56,-4,-48,-72,-108,-140,-160,-188,-216,-232,-260,-296,-316,-320,-332,-340,-332,-340,-352,-352,-364,-384,-392,-388,-396,-396,-384,-380,-384,-380,-388,-408,-412,-400,-404,-404,-388,-384,-384,-376,-380,-396,-396,-384,-384,-380,-364,-360,-360,-348,-348,-364,-364,-348,-340,-336,-320,-316,-320,-312,-316,-336,-336,-320,-316,-312,-300,-296,-296,-288,-288,-304,-300,-280,-268,-252,-228,-220,-220,-208,-208,-228,-232,-224,-228,-224,-204,-204,-204,-196,-200,-220,-228,-220,-224,-228,-216,-220,-228,-216,-216,-236,-232,-224,-228,-232,-220,-224,-228,-224,-232,-256,-260,-256,-268,-272,-264,-264,-272,-268,-280,-308,-316,-308,-320,-320,-300,-296,-304,-300,-304,-320,-316,-300,-300,-296,-280,-280,-280,-272,-280,-296,-296,-284,-288,-288,-280,-280,-280,-260,-244,-228,-180,-116,-56,44,196,364,548,748,908,1028,1140,1212,1188,1088
2026-03-16 10:59:10,892,568,160,-248,-652,-1008,-1216,-1284,-1272,-1196,-1076,-952,-836,-720,-620,-536,-428,-336,-276,-224,-172,-144,-124,-96,-88,-92,-84,-68,-68,-60,-44,-36,-32,-16,-8,-20,-16,-4,0,4,20,28,32,52,56,44,52,64,68,80,100,100,104,124,136,132,144,164,168,180,208,224,236,260,272,268,280,300,312,332,368,392,412,444,460,464,488,520,540,568,608,636,660,696,716,728,752,784,796,816,848,860,868,884,880,860,864,868,860,860,864,852,836,820,788,740,708,676,628,584,544,488,432,384,320,248,196,152,96,52,24,-20,-64,-92,-132,-176,-200,-216,-244,-260,-264,-280,-296,-300,-320,-344,-352,-352,-368,-368,-360,-364,-372,-368,-380,-400,-400,-396,-400,-396,-380,-380,-384,-376,-380,-396,-392,-384,-388,-384,-364,-364,-364,-352,-360,-376,-372,-360,-360,-348,-332,-332,-328,-316,-324,-348,-348,-340,-344,-336,-316,-312,-308,-292,-300,-320,-316,-308,-312,-308,-288,-288,-284,-272,-280,-296,-288,-268,-264,-248,-228,-220,-216,-208,-216,-232,-228,-220,-228,-228,-216,-212,-204,-192,-196,-220,-220,-220,-232,-232,-220,-228,-232,-220,-228,-248,-248,-244,-248,-248,-236,-236,-236,-224,-236,-252,-256,-256,-272,-272,-264,-268,-272,-272,-288,-312,-312,-308,-312,-308,-296,-296,-292,-280,-288,-304,-300,-292,-296,-288,-276,-280,-280,-268,-272,-288,-280,-276,-292,-292,-284,-288,-276,-256,-240,-212,-152,-88,-20,96,256,428,632,844,1008,1132,1252,1312,1272,1152,928,564,144,-268,-684,-1028,-1208,-1260,-1236,-1148,-1024,-908,-800,-684,-588,-492,-388,-304,-252,-208,-164,-140,-120,-96,-96,-104,-92,-80,-84,-68,-44,-36,-28,-16,-16,-24,-16,-8,-12,-4,12,20,28,40,40,32,44,56,60,72,96,104,116,132,136,132,148,164,168,184,204,216,232,256,260,260,280,304,316,344,372,388,416,444,456,464,496,528,548,580,616,636,664,696,712,720,752,780,792,808,828,836,856,880,880,872,880,888,880,880,888,872,860,852,816,772,740,700,644,600,560,508,456,412,348,276,228,180,120,76,40,-4,-40,-68,-112,-156,-176,-196,-228,-244,-252,-276,-292,-300,-324,-356,-360,-360,-372,-368,-360,-368,-364,-356,-368,-384,-380,-376,-384,-376,-360,-360,-360,-352,-364,-376,-372,-368,-368,-356,-344,-344,-336,-328,-340,-356,-348,-340,-344,-336,-324,-324,-320,-308,-320,-332,-324,-320,-320,-304,-288,-288,-288,-280,-288,-300,-292,-288,-292,-284,-272,-276,-272,-264,-276,-288,-280,-280,-288,-280,-264,-264,-260,-252,-272,-284,-276,-268,-276,-260
2026-03-16 10:59:11,-240,-236,-228,-216,-224,-232,-216,-208,-208,-200,-188,-196,-196,-192,-204,-216,-208,-208,-220,-216,-208,-216,-212,-208,-220,-228,-220,-212,-216,-204,-192,-196,-196,-188,-200,-208,-200,-200,-216,-220,-216,-228,-236,-236,-256,-276,-272,-268,-276,-268,-256,-264,-260,-252,-264,-280,-272,-272,-280,-272,-256,-256,-252,-244,-256,-268,-260,-260,-272,-264,-256,-260,-252,-232,-232,-224,-176,-120,-72,0,108,236,404,604,796,968,1136,1276,1368,1392,1332,1148,832,428,-20,-468,-844,-1100,-1224,-1228,-1156,-1060,-936,-816,-732,-636,-512,-400,-320,-248,-192,-160,-128,-100,-96,-92,-72,-60,-60,-48,-36,-36,-28,-12,-12,-16,0,4,4,16,24,24,32,48,44,44,64,76,76,92,108,108,116,132,132,136,160,172,180,196,216,220,232,252,252,256,276,288,300,328,360,372,392,420,432,448,480,508,520,544,576,596,632,672,688,704,740,768,788,808,832,844,864,884,880,884,900,904,900,908,916,908,904,896,868,840,824,792,744,712,672,620,576,528,456,392,340,280,216,172,132,84,48,12,-36,-80,-100,-136,-172,-192,-208,-236,-252,-264,-296,-320,-324,-336,-348,-348,-352,-360,-356,-352,-368,-380,-376,-376,-388,-380,-372,-380,-372,-364,-372,-376,-364,-364,-368,-356,-348,-356,-344,-332,-348,-352,-344,-348,-352,-336,-324,-328,-320,-312,-324,-328,-312,-312,-316,-308,-308,-316,-312,-304,-316,-324,-312,-304,-304,-296,-292,-296,-284,-276,-288,-296,-288,-288,-292,-276,-268,-272,-260,-244,-252,-252,-232,-224,-228,-216,-208,-212,-208,-204,-224,-232,-224,-224,-228,-216,-200,-200,-196,-196,-220,-232,-224,-232,-240,-224,-212,-216,-212,-212,-236,-252,-244,-244,-248,-232,-216,-220,-224,-236,-260,-276,-268,-272,-276,-268,-268,-280,-276,-272,-288,-296,-288,-296,-304,-292,-284,-284,-276,-268,-284,-288,-276,-272,-276,-264,-252,-256,-248,-244,-268,-284,-284,-288,-288,-264,-236,-204,-144,-88,-44,40,188,360,548,760,944,1088,1216,1288,1264,1164,964,624,196,-220,-620,-960,-1160,-1228,-1232,-1172,-1060,-936,-820,-696,-588,-492,-388,-300,-256,-220,-176,-140,-116,-80,-56,-52,-40,-32,-48,-52,-36,-32,-24,0,12,16,24,28,16,8,20,24,32,56,76,84,96,100,84,80,100,108,112,140,156,164,176,184,180,184,208,220,236,264,288,300,320,332,332,340,368,384,408,444,476,496,524,548,552,572,608,636,660,696,724,740,764,780,780,792,816,824,828,844,852,844,848,856,840,840,852,852,852,864,860,828,800,764,700,636,584,524,468,424
2026-03-16 10:59:12,376,320,272,216,152,104,84,56,32,20,0,-40,-72,-112,-172,-224,-256,-296,-332,-344,-360,-384,-392,-400,-424,-436,-428,-424,-416,-396,-392,-396,-392,-400,-424,-432,-416,-412,-408,-396,-388,-392,-384,-384,-408,-412,-404,-400,-396,-368,-356,-352,-336,-324,-332,-312,-268,-248,-252,-252,-268,-296,-308,-328,-356,-364,-352,-348,-344,-324,-308,-308,-296,-292,-308,-312,-300,-296,-292,-272,-268,-272,-264,-268,-288,-292,-284,-284,-284,-268,-256,-252,-232,-220,-228,-228,-220,-224,-220,-200,-192,-200,-192,-196,-220,-228,-220,-220,-216,-200,-200,-204,-200,-204,-232,-248,-244,-248,-244,-224,-216,-216,-196,-184,-192,-188,-180,-184,-176,-148,-120,-112,-112,-132,-180,-224,-256,-288,-312,-316,-312,-304,-280,-272,-284,-288,-280,-288,-292,-276,-248,-196,-132,-104,-120,-144,-172,-220,-208,-60,172,348,408,360,220,36,-160,-332,-428,-444,-420,-380,-296,-180,-48,132,356,576,764,944,1080,1140,1128,1032,804,472,84,-320,-708,-1016,-1208,-1280,-1256,-1180,-1084,-952,-808,-688,-572,-448,-352,-292,-240,-208,-196,-164,-120,-88,-68,-44,-40,-48,-40,-40,-44,-24,4,24,48,76,80,60,48,32,8,12,36,56,68,88,92,96,116,124,120,140,172,180,180,184,176,164,172,184,184,204,232,252,268,292,300,300,316,324,332,364,412,452,484,524,548,568,600,632,660,708,768,800,820,840,828,804,792,776,760,772,804,820,840,868,872,864,868,860,848,856,872,872,860,852,816,764,716,652,576,524,488,440,396,356,300,232,180,124,56,12,-4,-40,-72,-92,-128,-172,-200,-236,-276,-284,-280,-284,-284,-280,-292,-316,-328,-352,-376,-376,-360,-352,-340,-324,-332,-348,-352,-368,-388,-384,-368,-364,-352,-336,-336,-352,-352,-364,-380,-372,-352,-344,-328,-312,-312,-320,-316,-324,-340,-332,-312,-300,-288,-272,-272,-284,-284,-296,-312,-304,-284,-272,-260,-248,-248,-260,-260,-272,-288,-280,-260,-256,-244,-228,-232,-244,-244,-260,-276,-272,-260,-260,-252,-236,-240,-252,-252,-264,-284,-280,-264,-264,-252,-236,-236,-240,-228,-224,-236,-228,-208,-192,-176,-152,-148,-156,-160,-172,-192,-184,-172,-168,-164,-156,-168,-192,-204,-220,-240,-236,-220,-216,-204,-184,-188,-200,-200,-212,-236,-232,-208,-200,-188,-172,-184,-204,-212,-228,-256,-260,-248,-248,-244,-236,-248,-264,-272,-288,-308,-300,-276,-260,-240,-212,-212,-212,-204,-216,-240,-236,-228,-228,-224,-212,-212,-220,-224,-240,-260,-248,-220,-200,-160,-96,-48,-4,72,184,320,512,736,936,1108,1264,1372,1408,1376,1232,948,568,148,-280,-676,-972
2026-03-16 10:59:13,-1140,-1192,-1144,-1060,-956,-828,-708,-620,-516,-400,-316,-252,-192,-160,-140,-116,-84,-68,-44,-20,-16,-20,-16,-20,-32,-20,0,4,20,44,44,40,48,40,24,36,64,76,96,120,120,116,124,128,132,156,196,232,276,316,328,324,324,300,264,248,248,244,256,284,300,320,344,356,360,392,428,456,488,524,548,564,596,612,620,660,704,732,776,824,852,880,928,976,1044,1140,1216,1240,1240,1204,1112,1004,920,848,788,768,764,752,752,752,732,700,672,620,556,516,476,424,384,352,304,248,200,140,76,40,4,-36,-64,-84,-120,-152,-176,-216,-252,-260,-260,-280,-288,-284,-292,-300,-304,-324,-348,-352,-344,-352,-344,-328,-332,-340,-336,-352,-376,-372,-360,-364,-356,-336,-336,-336,-328,-336,-352,-340,-324,-320,-304,-288,-288,-288,-280,-292,-308,-300,-288,-288,-280,-260,-264,-268,-260,-272,-288,-284,-268,-264,-248,-232,-232,-236,-232,-244,-264,-260,-252,-252,-244,-224,-224,-228,-228,-244,-264,-260,-248,-244,-232,-216,-216,-216,-204,-208,-224,-216,-204,-200,-184,-164,-168,-172,-168,-180,-196,-188,-172,-172,-160,-148,-156,-160,-160,-180,-204,-204,-196,-200,-188,-172,-176,-180,-176,-192,-212,-204,-192,-196,-184,-168,-176,-188,-196,-216,-240,-244,-244,-252,-248,-240,-248,-252,-252,-264,-280,-276,-264,-268,-256,-240,-244,-240,-232,-244,-256,-248,-240,-244,-236,-224,-224,-228,-232,-248,-272,-268,-252,-244,-216,-168,-120,-68,0,84,212,396,612,828,1024,1196,1328,1412,1428,1328,1112,780,364,-84,-516,-880,-1124,-1224,-1212,-1156,-1064,-936,-804,-696,-580,-452,-352,-276,-220,-192,-180,-144,-112,-92,-64,-36,-32,-28,-24,-36,-52,-40,-24,-12,4,24,32,32,36,24,12,28,52,60,80,104,100,100,108,92,84,104,128,144,168,192,192,196,208,204,200,220,244,260,288,316,324,336,360,360,364,396,428,452,484,520,540,564,588,596,604,640,676,700,740,780,800,816,836,836,840,868,892,904,928,948,944,944,944,920,896,892,888,868,856,844,804,760,716,644,576,528,480,424,380,336,272,212,160,92,28,-4,-36,-76,-100,-124,-160,-192,-220,-264,-304,-312,-320,-336,-336,-328,-344,-352,-360,-388,-408,-400,-396,-400,-388,-376,-384,-388,-384,-400,-412,-404,-396,-392,-380,-364,-368,-368,-368,-388,-408,-396,-384,-380,-360,-344,-344,-344,-344,-360,-372,-364,-352,-344,-328,-312,-316,-316,-312,-332,-344,-332,-324,-320,-300,-284,-284,-284,-284,-300,-312,-300,-292,-292,-280,-272,-276,-272,-268,-284,-300,-292,-288,-288,-276,-260
