2026-03-17 15:23:49,-180,-184,-188,-188,-184,-188,-188,-188,-196,-200,-196,-200,-200,-192,-188,-188,-184,-184,-192,-200,-200,-212,-228,-232,-232,-224,-212,-208,-212,-212,-204,-208,-212,-208,-208,-220,-228,-232,-244,-248,-244,-244,-244,-236,-232,-232,-228,-224,-224,-216,-200,-192,-192,-188,-184,-188,-188,-188,-192,-192,-176,-172,-168,-160,-160,-172,-188,-200,-220,-228,-224,-224,-228,-236,-240,-244,-236,-232,-244,-260,-276,-292,-316,-324,-336,-352,-352,-348,-348,-348,-344,-344,-352,-348,-344,-344,-340,-328,-328,-328,-336,-356,-384,-404,-408,-404,-380,-320,-240,-136,-4,144,300,448,588,732,888,1040,1168,1268,1304,1248,1112,924,668,356,44,-212,-400,-520,-576,-596,-584,-536,-472,-416,-368,-336,-332,-340,-352,-364,-376,-364,-336,-316,-296,-288,-296,-312,-320,-332,-336,-332,-320,-312,-300,-292,-296,-308,-316,-328,-332,-324,-308,-296,-284,-272,-268,-268,-268,-272,-276,-260,-240,-228,-212,-204,-204,-200,-192,-188,-184,-168,-144,-128,-112,-100,-100,-104,-100,-96,-88,-68,-48,-36,-24,-8,0,4,16,24,28,36,40,44,48,52,48,40,36,28,16,16,20,16,20,24,20,12,4,0,-12,-12,-12,-16,-12,-8,-16,-20,-20,-24,-32,-32,-32,-36,-36,-40,-56,-68,-68,-76,-80,-80,-76,-80,-80,-72,-72,-72,-68,-68,-68,-64,-64,-64,-60,-52,-52,-52,-52,-56,-60,-56,-52,-48,-44,-40,-40,-40,-28,-28,-32,-32,-32,-36,-32,-28,-28,-28,-24,-24,-28,-28,-24,-28,-28,-24,-24,-24,-24,-28,-32,-36,-36,-36,-28,-20,-20,-20,-16,-12,-16,-8,0,4,12,24,28,32,40,48,48,52,60,64,68,76,84,96,112,120,124,132,140,144,144,148,148,152,156,156,152,156,160,152,144,144,140,136,144,152,152,160,172,180,188,204,208,208,212,212,212,216,228,236,248,252,244,224,212,200,196,216,256,320,412,532,672,836,1004,1148,1292,1452,1616,1768,1888,1952,1924,1824,1668,1444,1156,848,576,364,228,152,124,128,172,232,284,336,376,392,388,380,368,364,380,400,420,448,468,468,464,456,448,444,456,472,492,512,532,532,532,532,528,524,532,544,552,568,584,584,584,584,576,576,592,608,620,636,652,656,656,660,656,656,672,688,700,716,732,736,744,752,756,764,780,792,800,816,832,840,844,848,840,832,840,848,852,860,868,868,864,860,848,840,844,844,832,824,824,816,808,808,796,784,784,784,780,780,788,788,784,780,772,764,768,764,752,748,744,736,724,720,708,696
2026-03-17 15:23:50,688,680,672,672,680,676,676,676,672,668,672,672,668,672,680,680,680,692,696,692,696,696,692,696,704,700,696,696,696,696,700,700,700,708,720,724,724,732,736,736,744,752,748,748,756,756,764,768,768,768,772,776,772,772,780,780,784,792,788,784,788,796,800,808,820,828,832,844,848,848,856,864,872,880,892,900,904,916,920,928,944,956,956,956,968,972,976,976,972,968,968,968,964,968,972,964,952,948,936,920,920,920,916,920,932,944,956,972,984,996,1004,1012,1016,1032,1052,1068,1084,1092,1084,1064,1048,1044,1044,1072,1120,1188,1284,1408,1564,1736,1920,2080,2224,2380,2544,2692,2816,2888,2876,2780,2636,2432,2164,1876,1620,1416,1288,1224,1200,1208,1256,1328,1404,1476,1544,1588,1608,1616,1616,1624,1644,1672,1696,1728,1756,1768,1764,1764,1752,1744,1748,1760,1776,1796,1820,1828,1832,1840,1840,1840,1844,1860,1876,1896,1916,1924,1924,1928,1932,1936,1944,1960,1972,1984,2000,2012,2020,2032,2044,2068,2104,2144,2180,2224,2264,2288,2296,2308,2312,2324,2352,2380,2400,2428,2456,2480,2496,2516,2528,2536,2556,2572,2584,2600,2620,2628,2636,2652,2660,2668,2676,2692,2704,2720,2740,2752,2760,2768,2772,2780,2788,2796,2796,2800,2816,2824,2836,2860,2888,2912,2932,2940,2940,2932,2916,2884,2848,2816,2788,2776,2784,2788,2776,2764,2756,2740,2716,2700,2688,2676,2676,2676,2672,2668,2680,2688,2692,2696,2696,2692,2688,2680,2672,2668,2672,2672,2676,2680,2672,2664,2656,2648,2636,2632,2640,2640,2640,2640,2636,2628,2624,2624,2620,2616,2620,2616,2608,2604,2596,2592,2592,2584,2576,2576,2580,2580,2580,2580,2580,2576,2580,2584,2576,2576,2584,2584,2584,2588,2588,2584,2584,2580,2576,2576,2584,2592,2596,2616,2628,2632,2628,2620,2604,2592,2584,2572,2564,2556,2548,2536,2528,2508,2480,2456,2436,2408,2380,2364,2352,2344,2344,2344,2340,2336,2336,2332,2324,2316,2300,2284,2280,2280,2280,2280,2280,2272,2256,2236,2212,2192,2188,2208,2240,2308,2416,2548,2704,2860,3000,3112,3208,3272,3304,3348,3400,3452,3448,3344,3164,2924,2640,2368,2144,1980,1856,1768,1724,1720,1748,1792,1856,1916,1956,1980,1992,1988,1976,1964,1956,1956,1968,1984,1992,1988,1980,1960,1936,1928,1932,1940,1952,1968,1972,1972,1976,1972,1960,1952,1944,1944,1952,1968,1976,1976,1984,1984,1980,1976,1972,1968,1972,1980,1980,1980,1984,1980,1972,1968,1964,1960,1960,1956,1948,1944,1940,1932,1928,1928,1924,1924,1932,1940,1944,1944,1952,1948,1940,1936,1928,1916,1916,1912,1900,1888,1884,1872,1852,1836,1820,1804,1796,1788,1776,1768,1768,1760,1752,1760,1776,1788
2026-03-17 15:23:51,1796,1792,1772,1744,1704,1660,1612,1576,1544,1520,1504,1488,1480,1472,1476,1472,1468,1464,1452,1432,1420,1408,1392,1384,1384,1384,1376,1368,1352,1332,1316,1304,1292,1284,1288,1288,1280,1272,1264,1244,1224,1212,1200,1192,1188,1188,1180,1172,1160,1140,1124,1112,1096,1088,1084,1080,1068,1060,1044,1020,1000,988,972,956,948,944,932,924,908,884,868,856,840,832,836,840,844,844,840,828,816,804,796,788,788,788,784,784,780,768,760,756,752,748,756,760,756,744,728,708,696,680,660,644,632,624,612,600,572,536,500,472,444,420,404,392,376,368,356,340,328,316,308,300,300,296,288,276,264,252,236,216,188,156,136,124,120,136,172,220,300,412,556,708,852,984,1120,1260,1360,1396,1392,1376,1360,1316,1184,964,672,364,112,-76,-200,-272,-308,-320,-296,-248,-196,-152,-108,-84,-80,-92,-116,-144,-152,-148,-136,-124,-120,-124,-136,-148,-164,-176,-176,-168,-160,-152,-148,-148,-160,-176,-200,-220,-224,-220,-212,-200,-188,-188,-192,-196,-208,-220,-220,-216,-204,-192,-180,-180,-188,-196,-208,-220,-216,-208,-200,-188,-180,-180,-180,-172,-176,-180,-176,-164,-160,-152,-144,-140,-140,-140,-144,-152,-156,-156,-160,-160,-164,-168,-176,-188,-204,-216,-220,-224,-232,-240,-244,-252,-260,-268,-276,-284,-288,-288,-292,-292,-300,-308,-316,-324,-332,-344,-352,-356,-360,-364,-368,-380,-392,-400,-412,-424,-432,-432,-440,-444,-444,-452,-456,-456,-460,-464,-460,-452,-452,-452,-452,-452,-456,-456,-464,-472,-476,-476,-480,-484,-488,-496,-504,-504,-508,-516,-520,-524,-528,-532,-532,-536,-540,-544,-556,-568,-580,-588,-600,-612,-616,-628,-636,-648,-664,-676,-680,-680,-680,-680,-684,-688,-696,-692,-692,-700,-704,-700,-696,-692,-684,-680,-680,-676,-672,-672,-668,-664,-664,-656,-656,-656,-644,-632,-632,-640,-644,-648,-660,-676,-688,-696,-704,-712,-716,-724,-732,-752,-780,-804,-824,-840,-852,-860,-868,-864,-856,-856,-856,-856,-856,-860,-856,-856,-860,-864,-868,-872,-884,-900,-928,-956,-976,-984,-988,-972,-920,-840,-732,-588,-420,-260,-116,16,156,300,432,552,640,648,560,404,192,-68,-388,-704,-952,-1136,-1260,-1320,-1332,-1316,-1276,-1216,-1156,-1120,-1104,-1108,-1128,-1144,-1148,-1144,-1124,-1096,-1076,-1064,-1064,-1076,-1100,-1116,-1128,-1128,-1112,-1088,-1072,-1064,-1060,-1060,-1076,-1088,-1100,-1108,-1104,-1084,-1068,-1060,-1052,-1052,-1064,-1076,-1076,-1076,-1076,-1064,-1052,-1044,-1040,-1036,-1040,-1044,-1040,-1036,-1024,-1004,-984,-976,-968,-964,-968,-976,-980,-988,-988,-972,-960,-952,-940,-940,-952,-956,-952,-944,-936,-928,-924,-928,-936,-952,-968,-976,-984,-988
2026-03-17 15:23:52,-984,-972,-968,-968,-972,-984,-1004,-1012,-1004,-1004,-1008,-1004,-1008,-1024,-1040,-1056,-1076,-1084,-1084,-1080,-1076,-1064,-1060,-1068,-1072,-1084,-1100,-1108,-1100,-1096,-1096,-1092,-1092,-1096,-1096,-1100,-1108,-1120,-1124,-1128,-1128,-1124,-1132,-1144,-1148,-1148,-1156,-1164,-1168,-1172,-1176,-1172,-1168,-1172,-1172,-1184,-1200,-1212,-1212,-1204,-1188,-1168,-1160,-1168,-1180,-1188,-1200,-1200,-1188,-1184,-1176,-1168,-1168,-1176,-1176,-1180,-1188,-1192,-1188,-1188,-1176,-1160,-1156,-1152,-1144,-1136,-1140,-1144,-1140,-1136,-1120,-1100,-1088,-1080,-1076,-1076,-1084,-1080,-1072,-1064,-1052,-1044,-1052,-1064,-1068,-1080,-1096,-1104,-1108,-1116,-1120,-1116,-1116,-1124,-1136,-1156,-1176,-1188,-1188,-1196,-1200,-1196,-1200,-1216,-1220,-1224,-1232,-1224,-1208,-1188,-1176,-1164,-1164,-1172,-1168,-1168,-1188,-1208,-1232,-1260,-1276,-1276,-1272,-1248,-1196,-1116,-1008,-856,-680,-520,-376,-240,-104,24,144,244,308,300,200,32,-176,-444,-772,-1080,-1312,-1480,-1612,-1696,-1728,-1728,-1688,-1620,-1564,-1520,-1496,-1488,-1496,-1504,-1504,-1504,-1488,-1452,-1424,-1416,-1428,-1460,-1500,-1528,-1548,-1560,-1552,-1536,-1528,-1532,-1532,-1544,-1568,-1584,-1592,-1600,-1592,-1576,-1564,-1556,-1548,-1540,-1544,-1540,-1528,-1516,-1496,-1464,-1436,-1428,-1420,-1412,-1404,-1388,-1380,-1376,-1360,-1328,-1300,-1284,-1276,-1276,-1280,-1276,-1268,-1268,-1252,-1220,-1200,-1196,-1184,-1176,-1180,-1180,-1172,-1176,-1168,-1148,-1136,-1136,-1132,-1132,-1144,-1152,-1152,-1160,-1164,-1168,-1180,-1196,-1200,-1200,-1212,-1220,-1216,-1220,-1220,-1212,-1216,-1220,-1224,-1236,-1252,-1260,-1264,-1272,-1276,-1264,-1264,-1272,-1280,-1296,-1320,-1336,-1340,-1356,-1368,-1360,-1364,-1376,-1384,-1388,-1400,-1404,-1396,-1400,-1400,-1388,-1376,-1364,-1348,-1344,-1360,-1376,-1388,-1404,-1404,-1392,-1388,-1396,-1392,-1388,-1388,-1380,-1372,-1372,-1368,-1364,-1372,-1388,-1392,-1392,-1404,-1412,-1416,-1432,-1440,-1432,-1432,-1432,-1432,-1436,-1452,-1456,-1444,-1436,-1432,-1428,-1424,-1424,-1416,-1412,-1412,-1416,-1412,-1416,-1420,-1408,-1392,-1388,-1384,-1376,-1368,-1352,-1320,-1300,-1292,-1292,-1304,-1320,-1328,-1328,-1328,-1328,-1328,-1344,-1356,-1356,-1364,-1392,-1412,-1432,-1464,-1488,-1484,-1472,-1456,-1436,-1432,-1452,-1460,-1460,-1472,-1476,-1468,-1468,-1464,-1452,-1452,-1456,-1448,-1452,-1476,-1504,-1520,-1540,-1552,-1540,-1516,-1480,-1416,-1324,-1212,-1064,-892,-748,-616,-476,-336,-204,-80,8,28,-20,-128,-280,-480,-744,-1064,-1344,-1536,-1688,-1804,-1860,-1860,-1824,-1756,-1664,-1588,-1544,-1508,-1496,-1508,-1520,-1512,-1500,-1488,-1456,-1428,-1416,-1408,-1416,-1436,-1452,-1452,-1456,-1448,-1420,-1400,-1396,-1392,-1388,-1396,-1400,-1392,-1392,-1400,-1380,-1368,-1372,-1368,-1364,-1376,-1376,-1360,-1348,-1328,-1300,-1280,-1268,-1256,-1252,-1260,-1264,-1252,-1248,-1240,-1216,-1200,-1188,-1172,-1160,-1172,-1172,-1152,-1136,-1116,-1088,-1072,-1064,-1040,-1028,-1036,-1036,-1020,-1012,-996,-972,-952,-948,-940,-940,-964,-984,-984,-992
2026-03-17 15:23:53,-1004,-1000,-1004,-1012,-1012,-1020,-1044,-1068,-1076,-1084,-1092,-1088,-1096,-1120,-1128,-1132,-1144,-1156,-1152,-1144,-1132,-1112,-1108,-1124,-1132,-1136,-1148,-1164,-1172,-1180,-1192,-1188,-1188,-1200,-1204,-1200,-1208,-1212,-1204,-1204,-1204,-1192,-1184,-1184,-1176,-1164,-1168,-1168,-1156,-1160,-1160,-1148,-1144,-1148,-1136,-1116,-1108,-1096,-1088,-1088,-1092,-1088,-1096,-1116,-1116,-1104,-1108,-1120,-1120,-1128,-1136,-1132,-1124,-1124,-1108,-1096,-1088,-1080,-1064,-1064,-1072,-1068,-1064,-1064,-1056,-1040,-1032,-1028,-1016,-1016,-1016,-1004,-996,-992,-980,-960,-948,-932,-912,-908,-908,-892,-888,-904,-912,-920,-944,-968,-984,-1000,-1020,-1024,-1032,-1056,-1072,-1076,-1088,-1092,-1080,-1076,-1068,-1060,-1060,-1068,-1060,-1040,-1036,-1032,-1020,-1024,-1032,-1020,-1012,-1020,-1020,-1032,-1060,-1088,-1100,-1100,-1084,-1036,-976,-908,-804,-660,-504,-344,-196,-80,36,184,324,424,500,520,440,300,140,-72,-356,-644,-880,-1060,-1184,-1272,-1328,-1336,-1280,-1208,-1140,-1072,-1024,-1004,-992,-984,-988,-988,-972,-960,-944,-916,-900,-908,-912,-916,-928,-932,-916,-908,-908,-896,-884,-888,-880,-872,-876,-872,-852,-832,-816,-792,-776,-776,-768,-756,-756,-760,-760,-760,-756,-740,-736,-748,-748,-736,-740,-736,-712,-696,-688,-656,-632,-624,-616,-596,-584,-572,-552,-540,-532,-508,-484,-476,-464,-448,-448,-444,-424,-416,-416,-408,-408,-416,-420,-416,-420,-428,-424,-428,-436,-436,-440,-464,-472,-468,-480,-492,-496,-504,-520,-520,-520,-532,-544,-548,-556,-552,-536,-540,-560,-568,-584,-604,-612,-608,-608,-612,-608,-612,-624,-620,-620,-632,-636,-632,-636,-640,-632,-624,-624,-616,-604,-612,-616,-616,-624,-628,-620,-612,-612,-600,-596,-608,-608,-592,-580,-576,-568,-572,-592,-600,-608,-616,-616,-604,-604,-608,-596,-584,-580,-572,-572,-584,-584,-584,-588,-588,-576,-572,-580,-592,-596,-604,-600,-584,-576,-572,-560,-552,-556,-552,-548,-556,-560,-564,-576,-584,-580,-580,-580,-572,-564,-572,-580,-584,-604,-624,-632,-644,-656,-656,-656,-668,-676,-676,-700,-732,-748,-772,-800,-812,-824,-840,-848,-844,-844,-844,-836,-832,-832,-820,-812,-824,-824,-812,-812,-824,-832,-848,-876,-892,-900,-904,-892,-860,-816,-740,-628,-484,-324,-164,-28,72,188,332,460,572,660,672,608,500,340,112,-180,-500,-780,-1000,-1152,-1252,-1296,-1284,-1240,-1184,-1116,-1048,-1004,-984,-968,-964,-972,-972,-964,-964,-960,-948,-952,-960,-968,-984,-1000,-1000,-984,-980,-972,-952,-948,-948,-944,-952,-964,-964,-964,-972,-968,-944,-932,-936,-944,-960,-980,-972,-964,-968,-964,-948,-940,-936,-928,-928,-928,-912,-896,-900,-892,-872,-864,-852,-828,-808,-800,-784,-760,-744,-728,-708,-708,-708,-700,-700,-700,-692,-680,-680,-664,-632,-612,-600,-596,-604
2026-03-17 15:23:54,-616,-612,-616,-632,-632,-620,-620,-636,-648,-664,-680,-692,-700,-708,-708,-700,-708,-724,-736,-748,-760,-756,-744,-748,-748,-740,-748,-756,-752,-752,-764,-768,-780,-792,-796,-784,-788,-788,-776,-772,-772,-764,-752,-756,-752,-740,-736,-736,-732,-736,-748,-744,-732,-732,-728,-716,-716,-716,-708,-704,-712,-696,-680,-676,-676,-672,-684,-692,-688,-688,-696,-688,-684,-692,-688,-672,-668,-672,-672,-680,-692,-684,-680,-696,-716,-724,-724,-724,-708,-692,-684,-668,-652,-652,-648,-636,-632,-636,-632,-624,-624,-620,-620,-624,-616,-596,-588,-584,-576,-568,-568,-560,-540,-524,-508,-496,-516,-540,-556,-564,-576,-568,-556,-568,-576,-568,-568,-572,-572,-588,-612,-628,-652,-688,-704,-700,-700,-700,-688,-676,-672,-656,-644,-644,-640,-628,-628,-636,-636,-632,-632,-632,-636,-660,-680,-680,-668,-648,-596,-524,-436,-312,-160,-4,136,272,396,528,672,812,928,988,968,880,748,556,276,-60,-376,-628,-816,-920,-964,-972,-940,-876,-804,-736,-676,-640,-624,-616,-616,-628,-628,-604,-576,-556,-536,-532,-544,-560,-576,-588,-588,-572,-548,-524,-504,-500,-508,-516,-516,-532,-536,-524,-512,-500,-480,-472,-480,-480,-476,-484,-492,-480,-460,-444,-416,-400,-392,-376,-360,-360,-364,-352,-340,-324,-300,-280,-280,-280,-276,-276,-268,-248,-224,-204,-176,-156,-148,-140,-120,-108,-96,-72,-56,-52,-36,-28,-28,-28,-20,-28,-36,-28,-32,-44,-40,-40,-52,-56,-60,-76,-88,-92,-104,-112,-108,-104,-112,-120,-132,-156,-168,-164,-160,-160,-160,-168,-192,-200,-196,-196,-192,-176,-176,-180,-172,-168,-180,-188,-192,-208,-220,-216,-216,-216,-208,-196,-200,-196,-188,-196,-204,-200,-192,-188,-180,-176,-184,-180,-172,-172,-172,-156,-144,-136,-116,-104,-100,-100,-92,-100,-108,-104,-108,-116,-116,-112,-120,-116,-104,-104,-100,-96,-100,-112,-108,-100,-100,-92,-84,-88,-96,-92,-92,-96,-96,-92,-100,-92,-80,-84,-88,-84,-80,-76,-64,-52,-44,-36,-24,-28,-32,-28,-24,-24,-16,-4,0,4,20,32,44,60,64,64,68,64,48,40,40,32,28,32,28,12,12,8,-12,-28,-36,-52,-68,-76,-84,-92,-92,-92,-96,-92,-84,-84,-84,-72,-64,-64,-60,-60,-64,-60,-56,-68,-80,-92,-108,-124,-120,-96,-60,0,88,192,320,476,628,756,876,996,1120,1264,1404,1480,1468,1400,1276,1084,828,516,196,-52,-224,-336,-396,-404,-388,-356,-292,-220,-152,-96,-60,-56,-72,-88,-100,-100,-76,-52,-32,-12,4,0,-8,-12,-20,-24,-8,4,12,32,44,36,20,12,4,0,12,36,52,64,76,68,56,48,40,36,48,64
2026-03-17 15:23:55,76,92,116,124,124,128,132,140,160,180,192,204,220,220,220,228,236,240,256,272,276,288,304,300,304,316,324,324,336,352,352,356,356,348,340,344,348,348,356,360,348,336,328,316,308,312,316,320,328,324,308,292,280,260,248,252,256,256,260,264,252,236,224,212,208,216,224,228,232,224,204,188,176,156,148,160,176,184,192,192,180,160,152,148,152,172,192,204,216,220,212,200,192,180,176,188,208,224,240,252,252,236,216,196,188,200,220,228,240,240,232,224,220,216,220,236,260,264,264,264,248,232,220,208,200,208,224,232,240,248,240,228,224,216,216,228,248,256,260,260,244,224,212,208,216,240,260,268,272,280,280,280,272,260,252,260,272,280,288,292,284,276,280,276,276,276,280,276,280,280,268,248,232,212,196,200,204,204,192,172,140,116,96,80,68,68,76,80,80,80,72,64,60,52,48,52,60,64,72,76,68,52,40,24,12,12,20,40,68,120,192,288,412,552,696,836,968,1092,1224,1360,1484,1572,1600,1544,1420,1244,1016,716,392,112,-96,-228,-296,-320,-312,-268,-200,-132,-76,-32,-12,-12,-24,-40,-44,-28,0,28,56,72,72,56,44,32,28,44,76,104,128,140,140,128,116,104,96,104,120,144,160,172,168,156,152,152,148,152,164,180,196,204,204,196,192,184,176,176,188,200,216,232,240,248,252,252,252,268,288,300,312,324,328,328,332,332,332,340,356,368,376,384,384,384,384,376,368,364,368,368,372,376,376,368,360,352,344,348,360,364,372,368,360,356,356,348,344,340,336,328,320,312,304,292,292,296,292,288,288,280,276,276,272,268,264,256,252,252,256,260,268,276,276,276,276,272,268,260,256,248,248,248,244,240,240,240,232,232,232,228,224,228,228,220,216,204,196,200,208,204,196,188,176,168,164,160,148,140,136,132,128,132,132,128,124,120,108,100,88,72,64,64,60,56,60,60,60,56,56,44,36,32,28,28,36,44,44,40,36,36,40,44,44,44,56,64,64,60,60,60,72,104,124,140,148,148,144,148,152,140,128,132,124,116,108,96,80,68,64,52,32,20,8,0,0,0,-8,-8,-16,-36,-48,-52,-60,-56,-40,-24,-24,-32,-40,-56,-64,-68,-64,-64,-68,-76,-88,-88,-76,-64,-24,40,124,236,380,544,696,824,940,1048,1168,1288
2026-03-17 15:23:56,1384,1428,1396,1296,1144,940,680,356,56,-168,-332,-436,-476,-480,-464,-420,-364,-320,-272,-232,-212,-200,-192,-188,-192,-188,-176,-156,-136,-116,-112,-112,-108,-116,-124,-120,-108,-100,-92,-88,-92,-100,-100,-100,-104,-104,-100,-108,-112,-100,-92,-84,-68,-60,-64,-52,-40,-36,-32,-24,-24,-28,-20,-16,-16,-8,0,8,16,32,44,44,48,52,48,40,32,16,24,44,60,76,100,112,120,136,164,172,172,168,156,152,152,152,140,132,120,104,92,84,72,56,52,44,24,8,0,-4,-8,-4,-8,-12,-20,-32,-56,-80,-96,-120,-132,-140,-148,-140,-124,-124,-140,-152,-164,-188,-204,-208,-220,-228,-220,-220,-224,-224,-228,-240,-248,-248,-256,-264,-256,-248,-248,-240,-236,-244,-248,-240,-240,-244,-232,-228,-236,-236,-240,-252,-264,-260,-256,-256,-248,-252,-272,-284,-304,-328,-352,-356,-368,-380,-376,-372,-384,-400,-412,-432,-444,-444,-444,-440,-420,-396,-384,-376,-376,-392,-404,-400,-396,-388,-360,-344,-348,-352,-360,-384,-400,-388,-376,-356,-324,-300,-300,-304,-304,-316,-332,-332,-328,-320,-292,-276,-280,-280,-284,-304,-312,-300,-280,-260,-228,-220,-236,-256,-280,-308,-328,-324,-316,-308,-284,-268,-268,-280,-296,-328,-348,-360,-384,-400,-392,-380,-380,-384,-384,-396,-404,-396,-396,-396,-384,-372,-376,-372,-364,-376,-384,-376,-388,-408,-412,-412,-416,-404,-372,-328,-260,-160,-32,116,288,448,572,684,804,916,1000,1040,1012,928,820,664,460,216,-40,-280,-460,-580,-672,-736,-744,-720,-680,-612,-540,-488,-444,-412,-400,-396,-368,-348,-336,-316,-292,-284,-280,-268,-268,-272,-264,-256,-256,-248,-236,-232,-224,-212,-212,-216,-212,-196,-188,-172,-152,-148,-148,-140,-140,-144,-136,-128,-132,-120,-96,-84,-80,-68,-68,-72,-56,-48,-44,-32,-8,0,0,8,16,28,52,64,64,80,104,108,112,124,136,144,172,188,192,208,228,228,228,240,240,236,248,256,248,248,256,248,236,240,240,244,260,272,260,248,244,224,204,192,176,160,152,144,128,136,160,164,164,176,188,192,208,212,200,196,196,184,172,172,172,180,212,236,244,248,252,236,228,236,236,236,256,272,276,288,300,300,300,320,328,328,340,348,340,340,352,352,348,352,356,364,388,408,408,416,440,448,452,460,456,444,444,440,432,436,448,456,464,468,456,432,412,396,376,376,392,412,432,448,448,424,404,388,376,388,416,444,472,496,500,484,468,452,436,436,456,484,512,536,536,516,500,488,484,496,524,544,556,560
2026-03-17 15:23:57,548,524,512,504,496,500,520,536,544,544,520,484,448,416,388,376,392,408,424,432,428,408,392,380,364,360,372,384,392,404,400,380,360,340,316,304,316,340,372,416,464,520,608,732,880,1032,1172,1284,1388,1496,1596,1668,1712,1712,1648,1532,1380,1180,916,624,372,184,48,-56,-132,-148,-108,-36,40,116,164,184,184,176,172,184,212,240,260,276,284,276,264,248,228,228,244,260,276,292,288,264,240,220,204,208,232,256,276,284,280,264,252,240,224,220,236,256,272,288,300,300,300,300,296,304,328,340,344,348,352,352,360,372,376,384,400,420,432,444,444,432,424,420,416,424,444,464,484,500,508,508,512,520,520,516,516,512,504,504,508,504,488,464,444,432,436,448,460,468,468,448,428,396,352,312,292,276,268,272,292,300,300,300,296,288,288,284,256,232,216,204,196,200,200,204,216,228,232,240,240,228,216,216,216,216,224,232,232,232,228,228,228,232,232,220,208,196,192,192,200,204,212,220,220,216,224,228,216,192,168,144,124,108,96,92,104,116,120,132,144,144,144,152,156,148,132,116,104,104,104,104,108,120,120,116,124,136,140,140,148,152,164,180,196,216,240,252,244,236,212,176,144,132,124,120,140,164,188,212,228,220,204,184,164,152,152,152,152,152,152,136,124,112,88,68,56,52,56,60,56,48,56,64,60,40,20,4,0,0,-8,-32,-48,-48,-48,-48,-40,-32,-24,-16,-8,0,36,96,184,300,456,632,800,936,1028,1092,1176,1288,1404,1500,1548,1524,1420,1264,1032,708,340,32,-160,-280,-348,-376,-376,-356,-320,-276,-232,-184,-152,-140,-128,-108,-88,-56,-28,-8,8,20,20,4,-8,-16,-24,-28,-24,-16,-8,-8,-28,-52,-60,-52,-44,-20,0,20,36,44,36,24,20,28,40,60,80,88,80,60,32,28,60,112,164,204,232,236,216,180,140,128,132,144,152,172,208,240,276,320,356,376,396,416,420,404,392,388,396,420,452,484,528,580,600,572,516,468,444,444,424,384,360,360,376,400,404,380,340,308,280,252,232,200,156,124,112,108,112,124,140,148,164,168,136,88,40,4,-12,-20,-12,-8,0,16,40,84,132,136,80,0,-64,-92,-104,-108,-108,-88,-56,-32,-12,0,4,-4,-4,-4,-20,-24,-16,-20,-16,-4,0,4,12,16,28,44,60,60,40,4,-24,-40,-32,-24,-32,-36
2026-03-17 15:23:58,-24,-8,8,28,36,36,36,28,12,4,0,0,0,0,0,16,44,60,52,36,24,12,16,36,56,68,84,92,104,120,128,116,84,52,40,40,40,40,40,40,44,40,32,36,40,36,28,12,-16,-52,-76,-88,-96,-96,-92,-96,-84,-68,-64,-72,-88,-104,-104,-96,-104,-116,-120,-124,-136,-168,-240,-364,-532,-724,-904,-1052,-1168,-1236,-1256,-1228,-1168,-1100,-1052,-1036,-1032,-1028,-1004,-960,-932,-944,-1040,-1220,-1456,-1748,-2136,-2580,-2960,-3212,-3380,-3496,-3584,-3644,-3668,-3656,-3632,-3612,-3592,-3576,-3584,-3596,-3616,-3636,-3652,-3664,-3680,-3696,-3700,-3708,-3732,-3756,-3772,-3788,-3796,-3788,-3776,-3768,-3760,-3752,-3756,-3772,-3784,-3784,-3776,-3756,-3736,-3740,-3748,-3756,-3768,-3776,-3784,-3792,-3784,-3760,-3736,-3716,-3704,-3708,-3716,-3716,-3712,-3708,-3700,-3672,-3636,-3612,-3584,-3568,-3564,-3564,-3556,-3544,-3520,-3492,-3456,-3424,-3388,-3352,-3328,-3316,-3304,-3288,-3264,-3236,-3212,-3188,-3164,-3136,-3120,-3120,-3116,-3120,-3128,-3124,-3104,-3096,-3100,-3104,-3108,-3104,-3112,-3128,-3144,-3144,-3136,-3132,-3128,-3124,-3132,-3144,-3152,-3160,-3164,-3164,-3164,-3160,-3156,-3160,-3168,-3176,-3188,-3196,-3192,-3176,-3160,-3144,-3128,-3116,-3108,-3104,-3100,-3104,-3100,-3076,-3048,-3020,-2996,-2976,-2976,-2988,-3004,-3020,-3020,-3000,-2976,-2960,-2940,-2920,-2912,-2908,-2892,-2876,-2860,-2836,-2808,-2784,-2764,-2752,-2756,-2756,-2752,-2744,-2732,-2708,-2684,-2664,-2640,-2624,-2616,-2612,-2604,-2596,-2580,-2556,-2528,-2512,-2504,-2500,-2500,-2508,-2520,-2532,-2528,-2512,-2500,-2492,-2472,-2468,-2472,-2464,-2448,-2436,-2424,-2400,-2380,-2364,-2348,-2336,-2336,-2332,-2324,-2320,-2308,-2276,-2248,-2240,-2232,-2224,-2224,-2224,-2212,-2192,-2176,-2164,-2156,-2152,-2144,-2132,-2128,-2120,-2112,-2108,-2100,-2076,-2068,-2076,-2088,-2100,-2112,-2124,-2136,-2144,-2148,-2132,-2116,-2104,-2092,-2076,-2080,-2084,-2080,-2080,-2072,-2052,-2036,-2028,-2028,-2028,-2036,-2048,-2060,-2072,-2072,-2048,-2016,-1972,-1920,-1844,-1744,-1608,-1444,-1280,-1136,-1008,-876,-736,-596,-464,-360,-308,-324,-408,-552,-756,-1052,-1412,-1744,-1980,-2136,-2228,-2264,-2248,-2204,-2128,-2056,-2012,-1980,-1960,-1956,-1944,-1920,-1904,-1884,-1848,-1824,-1812,-1812,-1820,-1836,-1840,-1828,-1816,-1788,-1748,-1724,-1728,-1728,-1732,-1736,-1736,-1732,-1720,-1696,-1660,-1636,-1632,-1632,-1632,-1640,-1644,-1636,-1624,-1612,-1580,-1548,-1524,-1504,-1496,-1504,-1516,-1524,-1524,-1508,-1480,-1452,-1436,-1420,-1428,-1452,-1476,-1476,-1468,-1452,-1428,-1400,-1376,-1356,-1352,-1360,-1364,-1348,-1316,-1280,-1240,-1212,-1192,-1176,-1164,-1180,-1212,-1216,-1204,-1184,-1160,-1140,-1132,-1136,-1152,-1188,-1220,-1236,-1248,-1252,-1240,-1224,-1224,-1236,-1260,-1296,-1320,-1336,-1352,-1360,-1352,-1348,-1360,-1376,-1396,-1436,-1476,-1500,-1512,-1500,-1468,-1440,-1428,-1432,-1448,-1480,-1508,-1516,-1520,-1516,-1488,-1472,-1464,-1448,-1436,-1444,-1456
2026-03-17 15:23:59,-1464,-1472,-1460,-1432,-1412,-1396,-1396,-1412,-1448,-1476,-1484,-1480,-1456,-1412,-1380,-1364,-1364,-1380,-1416,-1456,-1472,-1476,-1460,-1432,-1404,-1392,-1392,-1408,-1448,-1484,-1496,-1496,-1492,-1472,-1456,-1456,-1464,-1492,-1536,-1576,-1588,-1588,-1564,-1516,-1476,-1468,-1480,-1516,-1564,-1604,-1616,-1612,-1584,-1544,-1516,-1520,-1532,-1552,-1592,-1628,-1636,-1628,-1604,-1560,-1520,-1508,-1516,-1540,-1588,-1624,-1632,-1616,-1584,-1532,-1492,-1488,-1500,-1528,-1576,-1612,-1616,-1604,-1572,-1532,-1508,-1508,-1516,-1532,-1556,-1576,-1584,-1580,-1564,-1532,-1508,-1516,-1540,-1580,-1636,-1684,-1696,-1684,-1652,-1604,-1576,-1584,-1600,-1632,-1680,-1712,-1724,-1720,-1704,-1680,-1664,-1660,-1664,-1680,-1684,-1672,-1672,-1692,-1692,-1664,-1644,-1652,-1672,-1672,-1636,-1600,-1592,-1616,-1628,-1576,-1492,-1404,-1292,-1168,-1072,-988,-884,-748,-580,-376,-172,-36,0,-44,-180,-384,-656,-980,-1268,-1456,-1572,-1624,-1616,-1568,-1504,-1452,-1428,-1440,-1484,-1536,-1576,-1584,-1556,-1496,-1428,-1372,-1348,-1356,-1396,-1448,-1488,-1496,-1468,-1416,-1348,-1296,-1268,-1280,-1320,-1368,-1404,-1412,-1388,-1332,-1272,-1220,-1196,-1208,-1248,-1292,-1328,-1336,-1312,-1260,-1200,-1148,-1128,-1136,-1172,-1220,-1252,-1260,-1240,-1188,-1132,-1084,-1060,-1072,-1108,-1152,-1188,-1196,-1172,-1124,-1068,-1020,-1000,-1012,-1044,-1088,-1120,-1128,-1108,-1060,-1004,-960,-944,-952,-984,-1028,-1056,-1064,-1044,-1000,-948,-908,-888,-896,-928,-968,-1000,-1008,-988,-944,-896,-852,-836,-844,-876,-912,-944,-952,-932,-892,-844,-804,-788,-796,-828,-864,-892,-900,-880,-844,-796,-756,-740,-752,-780,-816,-840,-848,-832,-792,-752,-716,-700,-708,-736,-772,-796,-804,-788,-748,-708,-672,-656,-664,-692,-724,-752,-760,-744,-708,-668,-636,-620,-628,-652,-684,-712,-716,-700,-668,-628,-600,-584,-592,-620,-648,-672,-680,-664,-632,-592,-564,-552,-560,-580,-612,-632,-640,-624,-596,-560,-532,-520,-528,-548,-580,-600,-608,-592,-564,-528,-500,-488,-496,-516,-544,-568,-572,-560,-532,-500,-472,-460,-468,-488,-516,-536,-540,-528,-500,-468,-444,-432,-440,-460,-488,-508,-512,-500,-476,-444,-420,-408,-412,-432,-460,-476,-484,-472,-448,-416,-392,-384,-388,-408,-432,-452,-456,-448,-424,-396,-372,-360,-368,-384,-408,-428,-432,-424,-400,-372,-352,-340,-348,-364,-384,-404,-408,-400,-376,-352,-328,-320,-324,-344,-364,-352,-288,-208,-172,-184,-168,-60,116,344,572,696,664,496,232,0,-124,-204,-260,-312,-356,-388,-396,-384,-356,-328,-300,-292,-300,-324,-352,-376,-380,-368,-340,-308,-280,-272,-284,-308,-332,-356,-360,-348,-320,-288,-268,-260,-268,-288,-316,-336,-340,-328,-304,-272,-248,-240,-252,-272,-296,-316,-320,-308,-284,-256,-236,-228,-236,-256,-276,-280,-284,-284,-264,-240,-220,-212,-220,-240,-236,-212,-224,-244,-236,-216,-204
2026-03-17 15:24:00,-200,-208,-224,-192,-120,-100,-136,-172,-176,-172,-176,-192,-200,-160,-96,-72,-100,-144,-156,-156,-164,-180,-196,-168,-112,-100,-132,-164,-164,-156,-160,-172,-192,-168,-116,-116,-152,-168,-164,-152,-152,-164,-188,-216,-236,-244,-232,-208,-180,-160,-148,-160,-180,-208,-224,-228,-220,-196,-168,-148,-140,-148,-168,-184,-176,-180,-188,-176,-156,-136,-128,-140,-156,-128,-76,-72,-104,-128,-124,-116,-116,-128,-132,-80,-4,12,-20,-68,-88,-92,-100,-116,-84,8,100,124,96,24,-32,-60,-76,-80,-36,56,148,196,188,132,52,-8,-44,-36,32,136,224,240,196,128,56,12,28,92,192,320,432,496,504,476,416,360,352,388,460,572,680,736,748,720,644,568,548,584,660,768,876,928,936,912,856,792,768,772,792,852,932,984,976,920,836,756,720,724,752,808,868,876,832,756,648,560,532,552,596,668,736,764,752,704,628,552,520,528,572,640,704,724,692,632,544,464,456,500,584,712,852,976,1084,1180,1244,1300,1392,1540,1732,1956,2160,2252,2220,2092,1880,1596,1268,924,620,428,332,272,228,204,168,144,164,212,280,380,484,544,552,520,456,400,384,404,448,520,596,628,612,584,528,472,456,476,516,588,660,704,716,704,664,624,608,608,624,668,716,736,724,704,668,632,628,652,684,736,780,792,784,764,724,688,688,720,764,828,884,900,888,872,848,820,816,828,848,884,932,956,964,964,936,888,852,840,836,860,892,900,892,872,836,796,776,784,808,856,900,912,900,880,848,804,772,772,788,832,876,896,888,872,824,764,724,712,728,772,816,828,820,792,740,684,660,668,700,760,816,840,832,808,760,708,684,684,696,736,788,816,820,808,764,712,688,700,736,804,868,892,880,844,788,728,704,712,736,788,852,884,880,852,792,720,680,676,692,736,800,824,816,784,720,648,608,608,644,712,788,820,816,792,740,680,648,652,680,740,796,816,808,788,740,680,648,648,684,764,856,904,900,872,808,740,712,728,776,860,956,1008,1016,996,932,844,780,752,776,840,912,940,924,884,812,732,700,708,748,832,908,928,896,840,748,648,596,596,624,692,772,808,796,760,684,592,548,556,600,680,764,788,768,728,644,532,456,436,464,544,664,760,836,924,1000,1084,1204,1344,1496,1696,1924,2096,2208,2264,2220,2068,1880,1692,1480,1232,960,696,484,320,164,40,4,52,148,292,448,544,572,556,504,440
2026-03-17 15:24:01,432,476,548,656,768,804,780,732,644,556,528,556,612,708,808,856,856,828,756,672,632,648,700,808,936,1012,1024,1004,940,868,840,860,916,1036,1172,1236,1232,1204,1128,1024,960,952,988,1080,1192,1240,1228,1176,1072,948,884,900,980,1128,1284,1356,1356,1304,1192,1068,1020,1044,1116,1256,1408,1476,1460,1380,1232,1080,1016,1032,1108,1260,1424,1500,1484,1404,1256,1084,992,996,1068,1216,1372,1440,1424,1348,1200,1032,940,940,1016,1164,1332,1412,1400,1328,1176,992,892,896,964,1120,1296,1392,1396,1340,1196,1016,904,888,948,1100,1276,1368,1368,1308,1176,1008,920,936,1028,1200,1384,1476,1464,1392,1244,1076,984,992,1064,1212,1380,1464,1452,1380,1228,1052,952,936,984,1108,1264,1336,1324,1256,1116,948,856,848,892,1024,1192,1280,1276,1220,1076,896,800,812,900,1072,1280,1388,1388,1320,1164,976,880,896,1000,1192,1400,1504,1504,1440,1304,1132,1044,1052,1132,1300,1492,1592,1596,1544,1416,1256,1180,1204,1304,1492,1700,1812,1804,1724,1556,1352,1240,1240,1320,1496,1700,1804,1804,1740,1604,1436,1348,1360,1436,1600,1792,1892,1892,1844,1712,1544,1440,1424,1464,1592,1768,1868,1900,1896,1848,1804,1872,2048,2288,2580,2868,3056,3172,3256,3264,3216,3196,3188,3152,3128,3088,2908,2584,2228,1892,1616,1460,1416,1452,1600,1820,1992,2112,2208,2256,2268,2320,2424,2544,2728,2952,3124,3224,3284,3280,3232,3220,3260,3332,3464,3620,3712,3744,3748,3692,3600,3548,3544,3560,3632,3744,3804,3812,3812,3768,3688,3652,3656,3680,3752,3856,3920,3952,3984,3984,3944,3932,3952,3976,4028,4100,4140,4148,4164,4164,4124,4104,4104,4100,4132,4200,4236,4244,4256,4248,4228,4232,4256,4268,4296,4348,4372,4380,4404,4400,4356,4324,4292,4240,4208,4212,4216,4228,4264,4288,4272,4264,4256,4228,4228,4272,4304,4324,4368,4392,4376,4356,4332,4276,4220,4192,4152,4100,4084,4064,4012,3960,3912,3848,3804,3788,3760,3716,3696,3672,3620,3568,3516,3460,3428,3428,3416,3400,3416,3432,3416,3388,3344,3284,3244,3236,3224,3200,3192,3168,3108,3052,3008,2948,2904,2896,2884,2864,2872,2872,2840,2816,2800,2760,2728,2724,2712,2696,2716,2732,2716,2700,2688,2652,2628,2640,2648,2656,2700,2728,2716,2704,2704,2672,2648,2648,2644,2640,2656,2672,2664,2668,2696,2724,2768,2820,2848,2872,2916,2948,2940,2928,2904,2848,2800,2792,2780,2768,2784,2792,2772,2752,2732,2680,2644,2632,2608,2580,2584,2584,2552,2516,2484,2428,2392,2388,2372,2344,2352,2348,2300,2252,2216,2172,2160,2208,2256,2280,2320,2340,2312,2272,2232,2176,2144,2160,2188,2232,2320,2424,2524,2656,2804,2904,2976,3072,3172,3264,3364,3428,3416
2026-03-17 15:24:02,3344,3216,3004,2752,2488,2184,1896,1692,1548,1424,1328,1260,1200,1184,1244,1320,1380,1444,1488,1500,1508,1512,1488,1476,1496,1504,1500,1520,1532,1500,1476,1476,1464,1468,1512,1540,1536,1528,1484,1400,1336,1304,1280,1292,1360,1408,1412,1412,1388,1312,1248,1208,1168,1172,1244,1296,1312,1332,1320,1256,1188,1144,1104,1120,1192,1228,1212,1204,1196,1160,1140,1144,1156,1204,1288,1340,1340,1340,1312,1232,1152,1116,1116,1164,1240,1280,1296,1336,1340,1280,1212,1156,1088,1072,1120,1168,1180,1184,1148,1056,964,900,840,820,860,896,912,916,880,792,724,692,668,676,724,764,788,800,732,596,500,476,472,496,560,608,632,656,680,680,688,704,716,744,816,888,948,1000,1008,944,884,872,880,924,1004,1060,1084,1108,1120,1116,1120,1124,1112,1140,1212,1272,1300,1328,1328,1284,1244,1212,1156,1120,1140,1152,1136,1120,1092,1036,992,968,944,964,1032,1104,1168,1256,1320,1320,1296,1276,1232,1180,1168,1192,1244,1320,1336,1256,1156,1092,1040,1016,1036,1044,1028,1028,1012,952,888,844,800,772,772,760,724,700,640,520,376,236,60,-104,-224,-332,-408,-412,-412,-476,-544,-576,-620,-676,-712,-752,-800,-840,-884,-964,-1052,-1128,-1216,-1304,-1352,-1392,-1432,-1428,-1392,-1364,-1340,-1312,-1284,-1224,-1084,-924,-788,-660,-548,-464,-388,-328,-332,-380,-424,-500,-636,-828,-1120,-1512,-1880,-2156,-2364,-2488,-2496,-2452,-2396,-2296,-2192,-2164,-2184,-2204,-2236,-2272,-2272,-2268,-2280,-2276,-2248,-2240,-2236,-2228,-2252,-2284,-2296,-2300,-2296,-2240,-2164,-2120,-2100,-2092,-2128,-2172,-2184,-2188,-2192,-2156,-2100,-2076,-2068,-2072,-2104,-2144,-2148,-2140,-2136,-2116,-2084,-2068,-2052,-2044,-2068,-2096,-2108,-2120,-2128,-2092,-2032,-1984,-1936,-1908,-1932,-1968,-1960,-1940,-1924,-1868,-1808,-1800,-1812,-1816,-1844,-1880,-1880,-1864,-1828,-1756,-1668,-1620,-1604,-1608,-1652,-1708,-1740,-1760,-1772,-1752,-1720,-1712,-1704,-1692,-1712,-1752,-1768,-1784,-1800,-1776,-1732,-1728,-1748,-1772,-1820,-1872,-1900,-1908,-1900,-1852,-1792,-1764,-1764,-1776,-1820,-1880,-1916,-1924,-1912,-1860,-1800,-1800,-1840,-1872,-1904,-1916,-1864,-1788,-1736,-1664,-1584,-1552,-1548,-1560,-1616,-1676,-1692,-1684,-1656,-1560,-1428,-1332,-1264,-1200,-1160,-1144,-1112,-1076,-1032,-940,-804,-676,-560,-472,-432,-408,-352,-300,-260,-200,-120,-64,-24,20,52,68,104,152,192,252,336,412,480,516,492,460,464,488,524,600,688,752,796,836,876,940,1060,1200,1316,1432,1536,1596,1640,1672,1664,1632,1600,1600,1636,1720,1816,1884,1916,1928,1900,1864,1868,1900,1932,1980,2040,2068,2088,2136,2180,2220,2288,2364,2420,2500,2596,2644,2632,2608,2584,2580,2636,2728,2828,2944,3056,3132,3184,3236,3288,3368,3508,3688,3876,4076,4256,4388
2026-03-17 15:24:03,4508,4616,4656,4636,4604,4556,4496,4432,4308,4060,3748,3476,3272,3144,3120,3172,3272,3432,3648,3852,4004,4088,4092,4056,4036,4032,4048,4128,4260,4376,4460,4508,4492,4452,4448,4456,4440,4452,4492,4532,4560,4584,4572,4536,4528,4524,4516,4548,4620,4684,4724,4732,4708,4680,4676,4672,4676,4728,4788,4816,4812,4784,4732,4704,4736,4784,4812,4880,4968,5008,5032,5052,5008,4928,4896,4892,4888,4932,5036,5136,5212,5276,5292,5208,5036,4864,4796,4872,5036,5180,5280,5316,5264,5092,4848,4636,4548,4612,4796,4984,5104,5160,5080,4868,4604,4388,4296,4352,4528,4724,4848,4892,4812,4604,4348,4140,4048,4104,4272,4424,4488,4500,4448,4292,4072,3884,3804,3864,4032,4216,4348,4392,4312,4116,3876,3680,3596,3648,3808,4004,4156,4196,4100,3900,3660,3468,3388,3436,3588,3780,3924,3964,3872,3680,3452,3268,3188,3236,3388,3568,3704,3736,3656,3472,3256,3080,3004,3048,3192,3372,3508,3544,3460,3280,3072,2900,2828,2876,3012,3180,3312,3348,3268,3100,2900,2736,2664,2708,2840,3004,3132,3168,3092,2928,2732,2576,2508,2552,2680,2840,2960,2996,2920,2764,2576,2428,2364,2404,2528,2684,2800,2832,2760,2608,2432,2288,2224,2264,2384,2532,2644,2676,2612,2464,2292,2152,2092,2132,2248,2392,2500,2532,2468,2328,2160,2028,1972,2008,2120,2256,2364,2396,2332,2200,2040,1908,1856,1892,2000,2132,2232,2264,2204,2076,1920,1796,1744,1780,1884,2012,2112,2140,2084,1960,1812,1692,1644,1676,1776,1848,1820,1760,1728,1700,1624,1548,1520,1564,1632,1636,1588,1568,1548,1524,1488,1432,1412,1388,1308,1176,1056,1012,1036,1100,1176,1224,1224,1172,1084,956,828,752,724,740,824,940,980,908,768,600,452,352,296,268,280,300,276,240,216,168,76,12,-12,-16,-4,0,-32,-72,-116,-168,-224,-264,-304,-332,-316,-292,-300,-324,-360,-432,-504,-540,-532,-476,-388,-312,-296,-344,-432,-552,-684,-800,-872,-852,-712,-532,-420,-392,-448,-580,-744,-860,-928,-980,-1012,-996,-920,-796,-680,-640,-680,-760,-872,-988,-1080,-1168,-1284,-1384,-1452,-1540,-1652,-1724,-1744,-1736,-1676,-1596,-1556,-1556,-1588,-1672,-1772,-1812,-1812,-1808,-1776,-1724,-1692,-1688,-1696,-1728,-1780,-1812,-1824,-1816,-1780,-1716,-1640,-1560,-1512,-1548,-1636,-1704,-1736,-1732,-1672,-1580,-1508,-1468,-1476,-1588,-1764,-1912,-1992,-2008,-1968,-1924,-1924,-1948,-1968,-2004,-2044,-2056,-2064,-2076,-2056,-2016,-2000,-2004,-2008,-2052,-2128,-2172,-2160,-2112,-2036,-1948,-1856,-1744,-1628,-1592,-1656,-1748,-1804,-1852,-1908,-1972,-2092,-2260,-2384,-2464,-2540,-2596,-2652,-2692,-2668,-2588,-2528,-2540,-2652,-2852,-3036,-3088,-3068,-3032,-2980,-2920,-2888,-2860,-2828,-2840,-2900,-2932,-2912,-2876,-2820,-2760,-2748,-2764,-2780,-2808,-2812,-2720,-2528,-2248,-1924,-1632,-1444,-1332,-1272,-1280
2026-03-17 15:24:04,-1356,-1436,-1520,-1624,-1724,-1852,-2088,-2404,-2712,-2980,-3204,-3360,-3452,-3484,-3436,-3328,-3228,-3148,-3092,-3100,-3144,-3164,-3164,-3152,-3096,-3016,-2948,-2892,-2844,-2860,-2912,-2944,-2968,-2984,-2956,-2904,-2888,-2896,-2904,-2928,-2960,-2948,-2900,-2848,-2776,-2704,-2676,-2672,-2676,-2720,-2784,-2824,-2832,-2820,-2764,-2688,-2648,-2640,-2648,-2696,-2772,-2800,-2768,-2704,-2612,-2528,-2504,-2512,-2512,-2552,-2628,-2680,-2700,-2708,-2664,-2576,-2488,-2428,-2392,-2400,-2428,-2420,-2404,-2404,-2384,-2328,-2296,-2296,-2304,-2332,-2352,-2336,-2304,-2284,-2240,-2168,-2108,-2084,-2080,-2116,-2196,-2264,-2300,-2320,-2304,-2268,-2256,-2272,-2280,-2312,-2384,-2448,-2500,-2548,-2548,-2512,-2476,-2448,-2408,-2400,-2436,-2468,-2484,-2524,-2548,-2536,-2536,-2548,-2540,-2528,-2524,-2512,-2484,-2452,-2408,-2368,-2376,-2412,-2432,-2464,-2492,-2464,-2404,-2364,-2280,-2168,-2100,-2092,-2116,-2184,-2268,-2316,-2368,-2436,-2444,-2400,-2360,-2332,-2308,-2316,-2336,-2352,-2384,-2456,-2512,-2492,-2464,-2464,-2432,-2372,-2300,-2212,-2156,-2184,-2220,-2160,-2068,-1996,-1932,-1896,-1892,-1888,-1904,-1980,-2044,-2048,-2060,-2144,-2248,-2272,-2188,-2024,-1836,-1696,-1624,-1584,-1608,-1692,-1804,-1920,-2008,-2044,-2056,-2088,-2132,-2160,-2192,-2268,-2388,-2528,-2616,-2580,-2440,-2276,-2100,-1952,-1916,-2020,-2196,-2332,-2380,-2360,-2336,-2312,-2204,-2028,-1904,-1884,-1916,-1976,-2048,-2072,-2064,-2036,-1932,-1756,-1564,-1356,-1120,-932,-796,-656,-508,-388,-268,-156,-144,-236,-376,-592,-924,-1308,-1676,-1972,-2180,-2352,-2532,-2668,-2684,-2636,-2552,-2424,-2312,-2276,-2260,-2240,-2268,-2268,-2156,-2000,-1896,-1844,-1824,-1832,-1824,-1792,-1748,-1692,-1648,-1668,-1736,-1776,-1796,-1796,-1720,-1620,-1584,-1620,-1648,-1676,-1720,-1756,-1752,-1720,-1660,-1568,-1480,-1412,-1384,-1428,-1576,-1804,-2008,-2060,-1932,-1724,-1544,-1396,-1288,-1252,-1296,-1340,-1348,-1352,-1344,-1272,-1176,-1108,-1100,-1192,-1324,-1384,-1376,-1352,-1296,-1236,-1204,-1124,-988,-904,-908,-972,-1128,-1320,-1388,-1320,-1228,-1136,-1008,-948,-1056,-1208,-1264,-1228,-1120,-972,-892,-920,-988,-1040,-1096,-1168,-1216,-1184,-1072,-968,-936,-968,-1048,-1180,-1316,-1364,-1324,-1256,-1144,-1020,-952,-924,-916,-960,-1028,-1072,-1112,-1164,-1164,-1108,-1060,-1036,-1024,-1040,-1076,-1096,-1080,-1040,-988,-912,-832,-768,-676,-548,-472,-476,-532,-552,-480,-380,-352,-348,-340,-344,-344,-336,-332,-352,-336,-264,-220,-220,-228,-244,-268,-264,-268,-312,-364,-380,-372,-332,-276,-228,-184,-96,-8,12,-4,-24,-56,-76,-48,-32,-68,-88,-76,-56,-16,64,164,212,212,196,196,204,184,152,144,168,180,160,148,128,72,16,0,20,76,144,160,124,124,152,156,148,140,128,128,132,104,76,92,140,188,224,232,220,224,260,344,484,692,908,1068,1212,1360,1476,1600,1780,2004,2260,2528,2728,2800,2788,2716,2524,2208,1800,1328,908,664,536
2026-03-17 15:24:05,428,328,208,72,8,40,96,136,168,188,188,176,124,68,76,128,156,156,168,172,152,140,144,168,224,280,252,116,-36,-132,-180,-176,-144,-128,-100,-40,16,56,100,128,112,80,48,4,-16,0,8,16,36,64,96,136,124,0,-180,-316,-388,-420,-376,-280,-192,-128,-92,-84,-76,-88,-160,-240,-252,-216,-204,-204,-204,-216,-216,-200,-192,-172,-108,-40,-36,-72,-108,-140,-152,-148,-144,-148,-136,-128,-136,-140,-148,-208,-284,-320,-332,-352,-384,-444,-544,-608,-592,-560,-576,-632,-716,-776,-788,-796,-828,-836,-804,-764,-744,-736,-744,-760,-740,-716,-732,-764,-780,-816,-844,-840,-820,-780,-712,-676,-688,-688,-664,-676,-708,-704,-684,-696,-736,-804,-888,-936,-920,-876,-840,-868,-984,-1132,-1204,-1184,-1180,-1212,-1228,-1212,-1168,-1088,-1004,-948,-916,-912,-940,-964,-968,-964,-944,-892,-848,-832,-804,-776,-792,-828,-860,-884,-856,-752,-644,-592,-580,-624,-720,-784,-836,-928,-984,-952,-888,-832,-764,-680,-640,-664,-772,-948,-1084,-1108,-1064,-1016,-968,-948,-972,-1004,-1008,-1008,-984,-896,-780,-700,-652,-640,-676,-712,-736,-772,-776,-716,-640,-580,-516,-460,-416,-348,-284,-252,-208,-128,-28,84,220,352,496,688,868,944,924,804,560,200,-196,-560,-848,-1044,-1156,-1240,-1280,-1244,-1172,-1088,-988,-924,-908,-908,-904,-888,-844,-744,-636,-568,-524,-520,-608,-760,-908,-1012,-1048,-1024,-1004,-1008,-1016,-1044,-1108,-1124,-1052,-976,-920,-836,-788,-804,-808,-772,-768,-804,-832,-780,-648,-516,-424,-324,-168,-4,72,72,32,-52,-160,-248,-316,-340,-292,-208,-156,-132,-148,-224,-332,-412,-476,-532,-576,-636,-716,-716,-632,-552,-484,-408,-356,-308,-208,-112,-88,-104,-160,-260,-308,-224,-76,48,144,184,152,88,36,-4,-28,-8,4,-4,-20,-52,-116,-184,-216,-236,-244,-216,-192,-200,-200,-208,-264,-340,-424,-548,-644,-636,-564,-488,-400,-348,-368,-412,-440,-440,-400,-312,-228,-180,-148,-144,-200,-256,-272,-276,-276,-252,-232,-220,-184,-152,-156,-176,-200,-236,-260,-240,-212,-204,-176,-140,-124,-136,-192,-312,-452,-532,-552,-536,-476,-408,-424,-492,-524,-516,-484,-416,-348,-316,-288,-296,-360,-444,-520,-572,-540,-404,-252,-152,-84,-44,-72,-120,-156,-200,-228,-212,-188,-196,-204,-216,-268,-328,-360,-376,-356,-308,-308,-388,-476,-564,-708,-872,-984,-1004,-944,-816,-636,-464,-320,-232,-240,-268,-288,-352,-404,-384,-348,-316,-300,-348,-464,-564,-608,-620,-608,-532,-412,-272,-112,60,196,312,440,580,752,956,1140,1236,1248,1168,976,696,356,-48,-452,-744,-932,-1080,-1180,-1220,-1228,-1212,-1172,-1164,-1172,-1140,-1064,-964,-836,-724
2026-03-17 15:24:06,-684,-696,-716,-732,-740,-740,-748,-776,-800,-828,-856,-860,-832,-820,-824,-792,-756,-752,-736,-724,-748,-776,-780,-784,-788,-772,-764,-788,-820,-856,-928,-988,-1016,-1032,-1024,-956,-884,-864,-856,-812,-772,-756,-756,-768,-776,-756,-728,-692,-604,-492,-436,-424,-432,-472,-548,-628,-708,-792,-840,-864,-900,-936,-944,-948,-948,-904,-856,-828,-796,-768,-776,-800,-812,-840,-856,-824,-784,-776,-776,-792,-856,-936,-972,-980,-968,-912,-856,-840,-832,-832,-872,-924,-956,-984,-1004,-988,-952,-944,-936,-936,-968,-1012,-1032,-1048,-1056,-1024,-984,-980,-976,-968,-984,-996,-984,-976,-980,-964,-948,-944,-944,-940,-976,-1020,-1036,-1040,-1028,-960,-876,-828,-812,-820,-872,-928,-952,-960,-960,-920,-868,-844,-820,-796,-812,-840,-840,-836,-824,-768,-712,-680,-648,-616,-636,-672,-684,-696,-700,-664,-612,-592,-576,-560,-580,-608,-608,-608,-604,-560,-512,-492,-476,-452,-468,-504,-524,-556,-580,-564,-528,-516,-512,-516,-564,-624,-660,-684,-700,-668,-628,-616,-608,-604,-636,-680,-696,-704,-700,-648,-592,-564,-544,-524,-544,-588,-612,-636,-644,-612,-560,-524,-476,-404,-344,-268,-136,28,220,452,680,876,1060,1220,1324,1392,1420,1364,1232,1072,836,484,80,-272,-552,-756,-868,-924,-936,-876,-788,-720,-664,-612,-612,-644,-652,-656,-656,-620,-568,-544,-520,-500,-524,-580,-612,-628,-628,-588,-532,-500,-456,-404,-388,-400,-412,-452,-500,-508,-492,-488,-480,-464,-496,-556,-592,-620,-632,-600,-548,-536,-536,-532,-568,-616,-640,-648,-648,-604,-552,-536,-532,-524,-552,-596,-616,-624,-628,-584,-528,-500,-476,-460,-488,-532,-548,-544,-524,-452,-360,-300,-256,-232,-260,-312,-340,-360,-360,-316,-256,-224,-204,-188,-216,-248,-244,-232,-224,-176,-76,0,44,40,-32,-160,-264,-336,-364,-316,-240,-208,-216,-272,-412,-580,-700,-768,-796,-760,-700,-676,-668,-672,-708,-744,-744,-744,-752,-724,-676,-636,-544,-400,-280,-208,-160,-164,-220,-244,-224,-228,-288,-376,-500,-628,-720,-808,-896,-944,-944,-944,-944,-948,-972,-1004,-1000,-992,-980,-916,-828,-768,-704,-636,-612,-616,-596,-572,-532,-424,-252,-84,16,44,-20,-152,-296,-436,-544,-572,-544,-520,-480,-424,-400,-408,-400,-400,-408,-376,-332,-312,-296,-276,-292,-336,-356,-376,-400,-388,-328,-252,-168,-104,-104,-160,-232,-328,-432,-484,-492,-500,-488,-456,-452,-468,-472,-476,-488,-460,-420,-404,-384,-364,-376,-412,-432,-464,-504,-500,-468,-448,-408,-336,-268,-192,-64,80,232,408,592,752,924,1120,1284,1404,1476,1460,1348,1204,1008,700,320,-24,-316,-536,-680,-768,-824,-808,-744,-684,-620,-548,-516,-524,-528,-536,-540,-516,-464,-428,-396,-356
2026-03-17 15:24:07,-356,-388,-404,-424,-444,-428,-380,-348,-300,-220,-160,-112,-44,16,68,152,252,332,408,496,548,572,612,640,648,668,668,604,496,372,200,0,-192,-404,-628,-796,-908,-1000,-1064,-1116,-1208,-1324,-1388,-1404,-1388,-1316,-1208,-1124,-1044,-964,-928,-916,-892,-876,-868,-828,-764,-728,-704,-672,-680,-716,-732,-744,-764,-752,-716,-704,-700,-680,-696,-740,-772,-800,-824,-812,-784,-776,-772,-748,-756,-792,-808,-824,-844,-828,-788,-772,-764,-748,-764,-812,-852,-884,-916,-916,-892,-888,-888,-872,-892,-944,-984,-1016,-1052,-1048,-1016,-1004,-996,-980,-992,-1036,-1068,-1088,-1120,-1112,-1080,-1068,-1064,-1052,-1068,-1116,-1148,-1172,-1200,-1192,-1156,-1148,-1148,-1136,-1152,-1196,-1232,-1256,-1288,-1284,-1252,-1236,-1228,-1208,-1220,-1264,-1296,-1320,-1352,-1348,-1308,-1296,-1284,-1260,-1264,-1304,-1328,-1344,-1368,-1352,-1304,-1280,-1268,-1240,-1248,-1284,-1308,-1324,-1348,-1336,-1296,-1272,-1256,-1220,-1216,-1248,-1272,-1296,-1324,-1324,-1288,-1276,-1272,-1248,-1256,-1296,-1324,-1340,-1368,-1360,-1324,-1316,-1320,-1308,-1324,-1372,-1400,-1420,-1444,-1436,-1392,-1368,-1352,-1316,-1316,-1348,-1368,-1384,-1404,-1392,-1352,-1332,-1320,-1300,-1320,-1376,-1412,-1436,-1452,-1416,-1324,-1228,-1104,-932,-764,-628,-480,-348,-228,-56,172,372,524,612,580,452,280,44,-280,-640,-964,-1224,-1400,-1500,-1576,-1648,-1676,-1664,-1648,-1596,-1512,-1460,-1428,-1388,-1376,-1400,-1416,-1424,-1444,-1428,-1384,-1360,-1348,-1320,-1320,-1356,-1380,-1392,-1412,-1400,-1352,-1328,-1312,-1280,-1280,-1312,-1332,-1344,-1360,-1348,-1304,-1280,-1264,-1236,-1232,-1260,-1280,-1292,-1308,-1292,-1244,-1212,-1196,-1168,-1160,-1188,-1204,-1212,-1232,-1220,-1172,-1140,-1120,-1084,-1076,-1100,-1116,-1120,-1128,-1104,-1048,-1012,-984,-944,-928,-952,-960,-960,-968,-948,-900,-868,-852,-820,-812,-844,-868,-880,-904,-900,-864,-844,-832,-804,-804,-844,-872,-892,-924,-928,-900,-892,-892,-884,-900,-948,-988,-1016,-1048,-1052,-1020,-1004,-996,-972,-972,-1012,-1044,-1068,-1100,-1100,-1060,-1036,-1028,-1004,-1000,-1032,-1056,-1072,-1096,-1092,-1048,-1020,-1004,-976,-968,-1000,-1024,-1036,-1060,-1052,-1008,-984,-972,-944,-936,-964,-984,-1000,-1028,-1024,-988,-964,-948,-924,-920,-952,-976,-992,-1024,-1024,-984,-956,-944,-916,-908,-940,-964,-976,-1000,-996,-956,-924,-904,-872,-864,-888,-904,-912,-932,-924,-880,-852,-832,-800,-788,-820,-836,-844,-864,-856,-812,-776,-752,-720,-704,-728,-748,-760,-784,-784,-752,-732,-724,-696,-688,-720,-744,-764,-800,-816,-792,-788,-792,-780,-784,-816,-840,-848,-872,-868,-828,-800,-788,-756,-744,-772,-792,-804,-828,-824,-780,-756,-744,-716,-720,-768,-812,-840,-868,-852,-772,-684,-580,-420,-252,-100,48,196,308,456,664,868,1032,1156,1184,1096,956,768,492,164,-156,-448,-664,-784
2026-03-17 15:24:08,-876,-972,-1024,-1032,-1024,-972,-884,-812,-764,-712,-692,-708,-716,-720,-740,-736,-688,-648,-624,-592,-576,-604,-620,-624,-640,-636,-588,-556,-536,-496,-472,-492,-512,-516,-532,-528,-492,-468,-456,-424,-404,-424,-440,-444,-464,-460,-412,-380,-360,-316,-296,-316,-332,-332,-348,-344,-300,-260,-240,-208,-188,-212,-224,-228,-240,-228,-176,-132,-104,-60,-28,-40,-52,-48,-56,-48,-4,24,44,80,100,76,52,44,20,20,52,76,88,116,124,88,56,32,0,-16,4,16,16,32,32,-4,-40,-60,-96,-108,-84,-68,-72,-56,-52,-84,-116,-140,-176,-184,-152,-128,-120,-88,-76,-104,-124,-136,-164,-172,-136,-108,-96,-68,-52,-76,-96,-108,-128,-132,-96,-68,-56,-28,-12,-32,-56,-64,-88,-92,-56,-28,-16,8,24,0,-20,-36,-68,-76,-40,-16,-4,16,32,4,-16,-28,-60,-72,-40,-16,0,28,44,20,0,-12,-32,-32,0,24,36,68,88,64,40,28,0,-4,24,48,64,96,120,108,88,72,32,16,36,52,56,84,96,68,32,16,-12,-32,-12,0,-8,0,0,-32,-64,-84,-116,-128,-100,-80,-72,-40,-20,-40,-64,-72,-96,-108,-72,-44,-32,-4,0,-32,-76,-108,-152,-160,-108,-40,36,164,324,464,616,768,888,1012,1192,1384,1560,1732,1832,1800,1692,1536,1296,992,660,316,24,-152,-272,-388,-460,-488,-500,-476,-396,-328,-280,-228,-196,-216,-236,-240,-260,-264,-228,-196,-184,-160,-144,-168,-196,-208,-236,-244,-204,-176,-164,-132,-116,-140,-172,-184,-208,-212,-172,-140,-128,-104,-88,-116,-144,-156,-180,-188,-152,-124,-112,-80,-60,-84,-108,-120,-144,-144,-104,-72,-60,-32,-12,-32,-52,-56,-76,-76,-32,4,28,64,92,76,56,56,40,44,88,124,144,176,196,172,148,132,108,96,124,152,156,172,180,144,104,76,36,8,24,40,36,48,48,4,-36,-64,-104,-128,-104,-80,-80,-68,-60,-92,-136,-156,-192,-212,-188,-160,-152,-132,-120,-148,-180,-196,-224,-236,-200,-172,-160,-136,-112,-136,-168,-184,-204,-212,-176,-144,-132,-108,-88,-112,-144,-160,-188,-200,-168,-140,-128,-104,-84,-112,-144,-160,-192,-208,-180,-152,-144,-124,-104,-128,-160,-172,-200,-220,-192,-164,-156,-132,-116,-148,-184,-200,-224,-236,-204,-172,-160,-128,-108,-124,-152,-164,-188,-200,-172,-144,-136,-108,-84,-104,-128,-136,-160,-172,-132,-96,-84,-60,-48,-88,-128,-148,-180,-196,-168,-140,-136,-116,-100,-136,-180,-208,-248,-280,-264,-244,-244,-232,-216,-236,-268,-280,-308,-320,-288,-256,-248,-224,-200,-216,-248,-264,-296,-316,-296,-288,-300,-292
2026-03-17 15:24:09,-280,-292,-296,-256,-208,-112,64,260,444,632,792,912,1040,1196,1336,1448,1536,1540,1456,1328,1120,788,388,12,-292,-496,-588,-628,-656,-632,-580,-560,-544,-520,-516,-516,-476,-436,-416,-384,-356,-368,-392,-400,-424,-440,-416,-384,-372,-344,-312,-328,-352,-364,-388,-404,-376,-344,-332,-304,-276,-292,-316,-328,-352,-368,-344,-312,-300,-268,-240,-256,-280,-288,-308,-324,-296,-264,-252,-220,-188,-196,-212,-212,-232,-244,-212,-176,-156,-116,-76,-80,-96,-92,-104,-108,-68,-24,-4,32,72,72,52,48,32,20,52,88,96,124,152,140,112,96,64,40,52,72,68,80,92,64,24,0,-40,-80,-72,-56,-64,-56,-44,-72,-112,-140,-180,-216,-200,-180,-180,-164,-148,-168,-200,-212,-244,-272,-252,-220,-216,-196,-172,-192,-220,-232,-260,-284,-264,-236,-232,-208,-180,-192,-224,-236,-260,-280,-260,-228,-216,-188,-160,-172,-204,-220,-244,-264,-240,-208,-204,-180,-152,-168,-196,-212,-236,-260,-240,-212,-204,-180,-152,-168,-200,-216,-240,-260,-236,-208,-200,-176,-152,-168,-196,-208,-232,-256,-228,-192,-180,-156,-120,-128,-148,-160,-184,-204,-184,-152,-148,-124,-92,-104,-124,-128,-140,-152,-116,-72,-60,-40,-16,-40,-76,-96,-128,-156,-136,-108,-100,-80,-56,-76,-116,-140,-180,-220,-212,-196,-196,-180,-156,-172,-204,-216,-244,-268,-252,-224,-220,-196,-164,-176,-204,-216,-244,-272,-264,-248,-260,-252,-224,-224,-224,-188,-136,-48,108,300,476,660,828,960,1096,1268,1416,1504,1564,1556,1468,1340,1152,844,464,108,-184,-392,-496,-540,-568,-548,-492,-460,-444,-416,-412,-420,-388,-340,-320,-288,-248,-248,-268,-276,-296,-316,-300,-268,-260,-232,-192,-196,-216,-220,-240,-260,-240,-208,-192,-164,-124,-124,-144,-148,-168,-196,-180,-148,-132,-104,-64,-60,-76,-80,-100,-124,-104,-68,-56,-32,0,0,-12,-20,-40,-60,-40,-4,12,48,96,112,104,108,100,88,116,156,180,216,268,280,272,276,264,244,268,300,312,340,376,372,348,336,308,272,276,296,292,304,332,316,276,248,208,164,164,176,172,184,208,192,152,124,88,52,56,72,72,88,120,116,92,80,52,20,32,60,64,84,120,116,84,72,52,24,44,80,92,112,148,148,124,108,80,52,64,92,96,116,148,148,120,104,76,44,52,76,80,100,132,124,92,76,48,16,24,48,52,68,96,88,60,48,24,-8,0,20,28,52,84,84,56,44,20,-8,-4,16,28,56,92,88,68,64,44,16,32,64,72,100,144,144,124,112,92,64,76,108,120,148
2026-03-17 15:24:10,192,200,188,188,160,120,120,140,144,160,192,188,160,148,124,92,100,120,120,128,148,136,100,84,60,32,40,68,72,92,124,124,100,92,68,36,44,68,72,92,124,108,64,32,4,-24,0,60,128,232,396,552,700,864,992,1092,1236,1424,1604,1780,1916,1940,1860,1732,1536,1256,940,600,280,64,-56,-160,-252,-292,-312,-316,-268,-192,-140,-88,-36,-28,-44,-48,-68,-92,-80,-44,-32,-16,12,12,-12,-24,-40,-68,-60,-32,-24,-4,24,24,0,-4,-24,-56,-52,-24,-20,-4,28,32,8,0,-4,-28,-16,8,20,40,76,76,52,40,24,0,16,52,68,88,124,128,104,96,76,52,64,100,116,144,184,196,180,180,168,156,180,224,248,280,328,336,312,304,284,248,252,276,288,308,344,344,308,280,244,196,184,196,192,192,212,200,160,136,100,48,36,52,48,52,72,64,32,12,-8,-44,-48,-32,-32,-20,4,0,-20,-28,-48,-84,-80,-56,-48,-36,-4,0,-24,-36,-56,-88,-88,-60,-48,-32,0,4,-12,-24,-44,-76,-72,-40,-28,-12,20,28,12,4,-16,-52,-52,-24,-12,4,40,48,24,12,-4,-36,-36,-16,-8,4,40,44,28,20,0,-28,-28,0,4,24,60,72,52,44,28,0,0,32,44,68,116,132,112,100,80,44,48,76,88,108,148,168,160,152,128,88,80,100,104,116,148,152,128,108,84,44,32,48,40,36,60,60,28,8,-12,-52,-56,-28,-16,4,40,48,28,16,0,-32,-32,-4,0,20,56,64,28,0,-40,-80,-76,-24,28,112,248,396,536,688,828,936,1068,1236,1404,1580,1756,1844,1812,1720,1568,1340,1064,752,408,128,-28,-148,-256,-316,-348,-368,-336,-264,-216,-164,-104,-80,-92,-96,-104,-136,-140,-116,-100,-76,-36,-28,-48,-56,-76,-108,-108,-76,-60,-40,-8,-4,-28,-40,-56,-88,-80,-48,-36,-16,12,20,0,-16,-28,-60,-56,-24,-8,4,36,44,24,12,-4,-28,-20,12,36,60,100,116,96,96,84,60,72,112,140,168,220,240,224,220,212,196,208,252,276,296,336,352,328,316,304,280,284,316,328,344,376,376,336,312,284,244,232,252,252,256,272,260,212,180,148,108,96,116,120,120,144,136,100,76,52,16,12,36,48,60,92,96,64,48,28,0,0,32,48,60,96,104,76,64,48,16,16,44,56,68,108,116,88,72,56,28,28,56,72,84,116,120,96,76,60,32,36,68,80,92
2026-03-17 15:24:11,124,132,108,92,76,44,48,80,92,108,140,148,116,100,80,52,52,80,88,100,132,140,108,92,76,52,56,92,108,128,168,184,160,148,132,104,104,140,160,180,220,236,216,212,204,184,192,224,236,240,264,268,240,216,200,168,164,192,204,212,240,236,196,164,132,88,76,104,116,124,156,168,144,128,112,84,80,108,124,136,168,180,152,136,116,68,48,56,56,68,120,168,200,272,384,504,668,864,1032,1184,1360,1540,1688,1828,1916,1904,1844,1764,1608,1372,1080,724,368,104,-72,-216,-284,-284,-264,-224,-148,-96,-88,-80,-84,-104,-100,-60,-36,-20,12,28,4,-8,-24,-56,-64,-36,-24,-12,20,32,8,-4,-20,-56,-60,-32,-16,-4,24,36,12,0,-12,-44,-52,-24,-8,4,40,56,36,20,8,-20,-24,4,20,36,76,96,72,64,56,32,36,76,104,128,176,204,196,188,188,168,180,228,260,284,332,360,344,336,328,304,304,332,348,360,400,412,388,368,348,304,288,308,312,308,324,324,284,248,216,164,136,148,148,140,156,156,120,88,60,16,0,20,24,28,52,60,32,12,-4,-40,-52,-28,-12,-4,24,32,4,-8,-20,-56,-64,-36,-20,-12,12,24,0,-12,-28,-64,-68,-36,-20,-8,20,36,16,0,-16,-48,-56,-28,-12,0,32,44,20,4,-4,-32,-40,-16,0,4,40,56,32,16,4,-28,-40,-16,0,8,44,56,32,12,0,-28,-36,-8,0,12,48,64,44,32,24,0,0,28,52,64,100,116,96,84,72,44,40,72,92,112,156,184,172,160,148,108,88,108,116,116,144,156,136,116,96,60,48,68,72,68,88,96,64,36,16,-12,-24,0,16,24,56,76,52,32,16,-12,-16,12,28,40,72,84,48,16,-12,-56,-64,-16,32,92,212,348,480,632,788,912,1036,1208,1388,1576,1760,1876,1880,1816,1696,1504,1260,980,640,312,100,-36,-168,-260,-308,-336,-320,-248,-184,-128,-64,-28,-36,-40,-44,-64,-64,-28,-4,4,36,56,36,16,8,-16,-24,4,24,36,72,92,72,56,44,20,16,52,72,84,120,136,116,100,92,64,56,88,116,132,164,184,164,148,136,112,108,144,168,188,228,256,244,236,236,216,220,264,296,320,360,388,384,380,384,364,372,412,444,468,508,528,512,500,492,464,456,484,496,504,528,536,508,480,456,412,388,404,408,400,412,416,376,336,304,260,232,248,256,252
2026-03-17 15:24:12,272,280,248,220,200,164,148,168,180,180,208,224,200,180,172,140,124,152,168,176,208,224,200,180,168,136,128,156,180,188,220,232,212,192,180,148,136,168,188,196,224,244,224,200,192,164,156,188,208,216,248,268,248,224,212,184,172,196,216,228,260,280,256,236,220,192,180,208,228,236,260,276,252,232,216,188,176,200,220,228,260,284,264,248,240,216,208,240,260,268,296,316,292,276,268,240,232,260,288,300,340,368,348,320,300,264,244,268,284,288,312,328,304,276,260,224,200,212,212,200,216,228,196,172,160,128,112,140,156,164,192,216,192,176,168,136,124,152,168,168,184,188,148,112,96,80,104,184,288,416,600,796,956,1096,1228,1344,1500,1704,1892,2032,2124,2116,1996,1800,1540,1176,764,420,172,8,-76,-128,-184,-208,-192,-176,-140,-72,-20,0,40,72,64,56,52,36,28,60,80,84,108,128,112,96,88,64,52,84,112,120,144,164,144,128,120,96,88,116,144,152,176,192,172,152,144,120,112,140,164,168,196,220,204,192,188,164,156,192,220,232,268,296,284,276,280,264,264,304,336,356,392,424,420,412,416,404,408,448,480,492,520,544,528,512,504,476,460,480,492,484,500,508,476,440,416,372,340,348,348,328,332,340,300,264,236,192,160,172,180,168,180,188,160,128,116,84,64,84,100,104,128,144,120,96,84,60,44,64,80,80,104,124,108,88,80,56,36,60,76,80,104,124,104,88,80,56,40,64,84,88,112,132,112,92,80,52,36,60,80,80,104,124,108,84,76,48,32,52,72,76,100,120,96,72,64,36,16,36,52,52,76,92,72,48,36,8,-4,12,28,32,60,84,72,56,52,28,16,44,68,72,96,120,100,80,76,52,40,64,92,100,140,172,164,140,124,88,60,72,80,76,92,112,88,64,52,20,0,12,16,4,12,20,-4,-32,-44,-76,-96,-80,-60,-56,-32,-8,-28,-48,-56,-80,-100,-76,-52,-52,-36,-32,-64,-104,-124,-144,-140,-80,0,92,244,424,580,728,876,992,1132,1328,1528,1692,1828,1880,1812,1672,1480,1188,820,456,132,-108,-244,-324,-400,-444,-440,-424,-396,-328,-272,-244,-200,-168,-172,-184,-180,-196,-208,-180,-156,-152,-128,-100,-116,-136,-140,-164,-176,-148,-124,-116,-92,-68,-84,-100,-104,-124,-136,-108,-84,-76,-52,-28,-44,-60,-64,-84,-100,-76,-52,-48
2026-03-17 15:24:13,-24,0,-12,-28,-32,-48,-60,-32,-4,0,28,52,44,28,32,24,20,60,96,112,144,180,180,172,180,168,164,200,232,244,276,304,292,276,268,248,228,248,264,260,272,288,264,228,208,172,140,148,152,136,140,144,108,64,40,0,-28,-20,-8,-20,-8,0,-20,-52,-68,-100,-124,-112,-96,-96,-80,-64,-84,-112,-124,-148,-168,-144,-124,-124,-100,-72,-88,-112,-120,-140,-156,-132,-108,-108,-88,-68,-80,-104,-112,-132,-148,-128,-108,-100,-80,-52,-68,-92,-96,-120,-140,-116,-96,-96,-76,-52,-68,-92,-100,-124,-144,-124,-104,-100,-80,-52,-68,-92,-100,-124,-144,-120,-96,-96,-76,-52,-68,-96,-104,-124,-148,-128,-108,-108,-88,-64,-80,-104,-116,-140,-160,-140,-120,-120,-96,-72,-84,-104,-108,-124,-140,-116,-88,-80,-56,-28,-44,-64,-64,-84,-100,-76,-44,-28,0,40,32,4,-8,-36,-68,-56,-44,-48,-32,-12,-32,-60,-72,-100,-128,-116,-104,-116,-112,-100,-124,-152,-160,-184,-208,-188,-164,-164,-144,-112,-124,-148,-156,-172,-192,-176,-156,-160,-152,-140,-172,-212,-224,-236,-228,-164,-72,28,188,380,544,688,824,940,1076,1276,1476,1616,1704,1724,1636,1480,1276,980,608,264,-12,-220,-340,-400,-460,-500,-488,-472,-448,-384,-324,-300,-268,-228,-232,-244,-244,-260,-276,-252,-228,-220,-200,-172,-184,-204,-208,-228,-244,-220,-200,-196,-180,-152,-160,-184,-184,-200,-216,-192,-164,-160,-140,-112,-120,-140,-144,-156,-172,-148,-116,-112,-96,-68,-76,-96,-96,-112,-124,-96,-64,-56,-36,-4,-8,-24,-20,-32,-36,-4,32,44,72,116,116,108,116,112,104,132,168,184,212,248,244,224,220,204,184,208,232,232,244,260,240,204,188,160,124,128,140,124,124,132,104,60,40,4,-24,-20,-4,-12,-4,8,-8,-40,-52,-80,-104,-88,-64,-68,-56,-32,-44,-72,-80,-100,-124,-112,-88,-84,-72,-44,-52,-76,-80,-100,-120,-100,-72,-64,-44,-20,-28,-48,-56,-72,-92,-72,-40,-32,-16,4,0,-20,-28,-48,-72,-52,-24,-24,-12,8,0,-20,-28,-44,-64,-48,-24,-20,0,20,8,-12,-16,-36,-60,-44,-16,-16,-4,20,8,-12,-20,-36,-56,-40,-16,-16,-4,16,12,-4,-8,-28,-52,-40,-16,-12,0,28,16,0,-8,-28,-52,-32,-4,-4,8,40,40,24,20,4,-4,16,48,56,76,108,104,84,80,68,48,68,104,116,148,192,188,164,156,132,100,112,132,128,144,172,164,132,120,96,68,76,96,84,84,100,80,44,32,16,0,16,48,52
2026-03-17 15:24:14,64,96,92,72,68,48,24,40,68,68,76,88,64,24,8,0,0,60,148,252,404,596,764,908,1048,1164,1288,1472,1668,1808,1896,1928,1852,1704,1512,1228,864,512,224,12,-108,-176,-240,-280,-268,-248,-224,-164,-100,-68,-36,0,8,-4,0,-8,-24,0,24,32,48,76,68,52,52,40,24,40,68,72,88,108,100,76,76,60,40,60,92,100,116,148,144,120,116,104,84,108,144,152,168,196,196,172,172,164,152,172,208,224,240,276,284,272,276,276,264,288,332,352,380,420,428,420,428,428,420,452,492,504,524,556,556,540,532,520,492,504,528,524,528,552,536,504,488,456,416,416,424,408,404,412,392,348,320,288,248,244,252,240,240,260,244,208,188,168,136,140,160,156,168,192,188,156,144,128,100,112,136,136,144,172,168,144,136,120,96,108,140,148,156,184,180,156,152,136,112,124,152,156,168,196,192,168,160,140,120,136,160,160,172,200,196,172,164,148,120,132,160,164,176,204,200,172,164,148,120,132,156,160,172,196,192,164,160,144,116,124,148,152,164,192,188,160,148,128,100,108,132,136,148,176,172,144,136,120,92,104,136,148,164,200,200,176,172,160,140,156,180,184,196,228,228,208,208,200,188,208,248,256,264,284,272,236,224,204,172,180,204,200,204,232,228,196,176,148,100,96,108,100,100,128,124,100,88,72,44,52,80,84,96,124,124,100,92,72,40,36,40,24,20,44,52,60,108,172,264,428,624,804,976,1148,1292,1436,1608,1760,1856,1916,1916,1820,1668,1460,1140,736,360,68,-136,-248,-296,-328,-316,-256,-212,-188,-156,-140,-148,-132,-100,-84,-68,-28,-20,-40,-44,-56,-84,-84,-60,-56,-48,-12,-8,-24,-28,-40,-72,-68,-40,-36,-20,8,12,0,-4,-16,-44,-40,-16,-12,0,36,40,20,20,4,-20,-12,16,20,36,72,80,64,64,56,32,44,76,92,112,152,168,160,164,160,148,164,204,220,244,292,312,304,308,300,276,288,320,328,340,376,384,364,352,332,300,292,308,300,300,316,308,268,244,212,164,144,152,136,124,140,132,92,72,44,0,-12,0,-8,-12,0,0,-32,-48,-72,-108,-108,-84,-80,-72,-48,-48,-72,-84,-100,-132,-132,-108,-104,-96,-64,-56,-80,-88,-104,-136,-132,-104,-96,-84,-52,-44,-68,-76,-92,-124,-120,-92,-88,-76,-40,-36,-60,-72,-88,-116,-112,-84,-76
2026-03-17 15:24:15,-68,-40,-36,-60,-68,-84,-116,-116,-92,-88,-76,-44,-44,-68,-76,-88,-120,-120,-100,-96,-88,-56,-52,-76,-88,-100,-132,-128,-104,-96,-88,-56,-52,-80,-88,-104,-132,-136,-116,-112,-108,-76,-72,-92,-104,-116,-148,-144,-112,-104,-92,-60,-52,-68,-68,-76,-100,-96,-68,-60,-52,-16,-8,-32,-40,-48,-68,-60,-28,-12,0,32,32,0,-12,-36,-76,-80,-56,-52,-48,-20,-16,-40,-56,-76,-116,-128,-116,-128,-128,-108,-108,-136,-144,-160,-188,-188,-164,-160,-152,-120,-112,-136,-140,-152,-180,-184,-172,-180,-192,-180,-184,-196,-180,-148,-108,-8,152,316,496,696,848,968,1116,1284,1428,1568,1672,1672,1608,1512,1324,1032,676,296,-40,-256,-368,-460,-500,-480,-452,-432,-396,-364,-356,-332,-292,-276,-260,-216,-204,-220,-224,-228,-256,-256,-228,-224,-220,-188,-176,-192,-192,-200,-228,-228,-204,-204,-196,-160,-152,-168,-168,-176,-200,-200,-176,-168,-160,-128,-116,-136,-140,-144,-172,-168,-136,-128,-116,-80,-64,-76,-80,-88,-112,-108,-76,-68,-56,-16,4,0,4,4,-8,0,36,56,76,124,148,144,152,156,136,144,176,188,204,240,256,240,232,224,196,192,208,208,204,224,224,196,172,144,100,80,88,72,60,68,56,24,0,-24,-68,-80,-64,-72,-80,-64,-64,-92,-108,-124,-156,-164,-144,-144,-144,-112,-100,-120,-128,-136,-164,-172,-148,-144,-140,-112,-100,-124,-128,-136,-164,-164,-140,-132,-124,-92,-80,-100,-108,-112,-140,-140,-112,-108,-100,-68,-60,-80,-88,-96,-128,-132,-108,-100,-100,-68,-56,-72,-84,-92,-120,-124,-104,-100,-92,-60,-48,-68,-76,-80,-108,-112,-88,-80,-80,-56,-48,-68,-76,-84,-116,-120,-96,-92,-88,-60,-52,-72,-80,-88,-116,-124,-100,-92,-88,-60,-52,-72,-80,-88,-112,-116,-88,-84,-80,-52,-40,-52,-60,-64,-92,-92,-64,-52,-36,0,20,0,-4,-12,-40,-40,-12,0,8,44,68,60,60,48,20,12,32,32,28,48,56,32,20,4,-20,-28,-8,-8,-12,4,0,-32,-52,-68,-104,-112,-84,-80,-72,-44,-32,-52,-64,-68,-96,-100,-72,-68,-64,-36,-32,-72,-100,-132,-176,-188,-148,-112,-60,40,168,296,452,616,752,892,1056,1224,1404,1592,1724,1752,1708,1612,1448,1232,968,624,276,28,-144,-292,-380,-428,-464,-448,-384,-328,-284,-220,-188,-196,-200,-196,-212,-208,-176,-160,-152,-124,-112,-132,-144,-156,-184,-184,-152,-140,-136,-104,-92,-112,-124,-132,-156,-156,-120,-108,-104,-72,-60,-84,-96,-100,-128,-128,-104,-92,-80,-44,-28,-44,-52,-56,-76,-76,-48,-36
2026-03-17 15:24:16,-24,8,24,12,8,8,0,0,40,60,76,120,144,140,148,156,148,156,200,228,244,288,312,300,296,296,272,268,300,312,316,348,360,332,312,292,256,240,252,248,232,244,240,204,176,152,108,84,96,92,84,96,96,60,40,20,-12,-24,-4,0,-4,16,24,0,-16,-32,-60,-68,-44,-36,-28,-4,0,-24,-36,-48,-76,-80,-56,-44,-40,-16,-8,-36,-52,-60,-88,-92,-68,-56,-56,-28,-20,-40,-56,-68,-96,-104,-80,-72,-72,-44,-32,-52,-60,-68,-100,-108,-84,-72,-68,-44,-32,-56,-72,-80,-108,-112,-88,-80,-80,-60,-48,-72,-92,-100,-128,-136,-116,-108,-104,-80,-68,-92,-108,-120,-152,-160,-136,-128,-124,-100,-84,-104,-116,-120,-148,-160,-132,-120,-116,-88,-76,-96,-108,-116,-148,-152,-120,-108,-104,-72,-56,-72,-80,-80,-96,-96,-64,-48,-40,-8,4,-8,-16,-20,-40,-44,-12,4,16,56,72,48,32,16,-12,-28,-8,0,0,20,28,4,-4,-16,-48,-64,-52,-56,-68,-56,-52,-80,-104,-112,-144,-156,-128,-116,-116,-88,-72,-92,-104,-108,-136,-140,-112,-100,-108,-96,-100,-140,-160,-160,-164,-128,-36,68,200,388,576,728,864,996,1120,1284,1480,1632,1720,1756,1704,1556,1348,1072,696,312,20,-184,-324,-400,-444,-484,-484,-452,-432,-392,-324,-284,-264,-224,-200,-212,-216,-216,-236,-240,-212,-200,-200,-172,-160,-180,-192,-196,-220,-220,-192,-180,-180,-156,-140,-160,-168,-168,-188,-192,-160,-148,-148,-124,-112,-132,-140,-136,-156,-160,-128,-112,-112,-84,-68,-84,-92,-88,-104,-104,-68,-52,-44,-12,8,4,4,16,8,16,56,84,96,140,168,168,172,184,176,184,224,248,256,288,312,296,288,292,276,268,292,296,288,304,308,280,252,236,196,168,176,164,144,148,144,108,80,60,20,0,8,8,0,8,12,-12,-32,-40,-68,-84,-64,-60,-68,-52,-44,-68,-84,-88,-116,-124,-96,-92,-104,-92,-84,-112,-132,-140,-172,-188,-168,-160,-168,-148,-132,-156,-172,-180,-208,-220,-196,-188,-196,-172,-156,-180,-196,-200,-228,-244,-220,-216,-220,-200,-188,-208,-224,-232,-260,-272,-248,-240,-244,-224,-208,-232,-244,-244,-272,-284,-264,-260,-268,-248,-232,-256,-272,-276,-300,-316,-296,-284,-284,-264,-248,-272,-284,-288,-316,-332,-312,-304,-308,-292,-280,-304,-320,-328,-356,-372,-348,-340,-344,-324,-312,-336,-356,-364,-392,-408,-384,-380,-392,-376,-364,-384,-404,-412,-440,-456,-432,-428,-436,-412,-400,-424,-444,-456,-492,-512,-496,-488,-496,-480,-468,-488,-500,-508,-536,-556,-544,-548
2026-03-17 15:24:17,-564,-552,-540,-564,-576,-580,-604,-616,-588,-576,-576,-556,-544,-572,-600,-616,-648,-660,-640,-628,-632,-608,-588,-604,-616,-616,-640,-652,-628,-612,-608,-584,-564,-576,-588,-596,-628,-652,-640,-628,-616,-556,-484,-424,-328,-188,-44,112,300,452,592,780,980,1140,1264,1332,1296,1204,1088,888,596,260,-88,-404,-624,-764,-880,-944,-936,-908,-876,-812,-756,-748,-748,-744,-764,-768,-736,-720,-716,-684,-664,-684,-700,-708,-736,-752,-732,-724,-724,-700,-680,-700,-712,-720,-748,-764,-736,-720,-716,-692,-672,-688,-700,-700,-724,-740,-716,-696,-692,-664,-640,-652,-660,-656,-668,-664,-624,-600,-588,-552,-520,-528,-536,-536,-556,-568,-540,-520,-512,-480,-452,-460,-464,-460,-476,-480,-448,-424,-412,-372,-340,-344,-348,-344,-364,-372,-344,-324,-316,-284,-260,-272,-284,-292,-320,-344,-332,-328,-336,-324,-316,-344,-372,-388,-416,-440,-424,-420,-428,-416,-404,-424,-444,-456,-492,-516,-504,-504,-516,-504,-496,-524,-552,-564,-600,-628,-616,-616,-628,-616,-612,-644,-672,-688,-728,-752,-740,-732,-728,-696,-664,-664,-660,-648,-656,-656,-620,-592,-584,-548,-520,-528,-536,-532,-552,-564,-536,-524,-524,-500,-480,-500,-516,-524,-552,-564,-544,-536,-540,-520,-500,-520,-536,-540,-564,-584,-564,-552,-560,-540,-520,-540,-556,-564,-588,-604,-580,-568,-572,-548,-532,-552,-576,-588,-620,-640,-620,-596,-588,-552,-520,-524,-528,-516,-528,-532,-504,-484,-480,-452,-428,-448,-468,-476,-500,-516,-488,-472,-476,-460,-440,-456,-464,-464,-488,-496,-464,-444,-436,-404,-364,-368,-368,-360,-372,-376,-340,-316,-308,-280,-252,-260,-272,-276,-296,-312,-288,-280,-288,-272,-256,-276,-296,-312,-348,-376,-364,-352,-344,-312,-276,-276,-276,-260,-268,-268,-236,-212,-212,-188,-168,-188,-208,-208,-232,-244,-216,-200,-200,-172,-148,-156,-164,-156,-172,-176,-144,-120,-116,-84,-56,-72,-88,-100,-136,-164,-144,-112,-84,-8,84,180,316,480,632,784,956,1116,1276,1476,1668,1784,1832,1820,1728,1592,1424,1168,828,500,240,32,-108,-196,-268,-296,-256,-196,-152,-84,-32,-24,-24,-16,-28,-40,-12,0,0,24,48,36,20,16,0,-16,4,20,20,40,60,44,24,16,-8,-28,-8,4,0,20,36,12,-8,-20,-48,-68,-48,-36,-44,-28,-8,-28,-48,-52,-68,-72,-36,-4,12,52,100,104,100,116,116,124,168,208,228,272,316,324,332,348,348,352,396,436,456,496,532,536,536,544,532,528,556,576,580,604,628,612,596,592,564,536,548,552,540,552,564,532,496,472,432,400,404,404,388,396,404,372,340,324,292,264,280,288
2026-03-17 15:24:18,280,288,304,280,260,248,216,192,212,228,228,248,268,248,224,216,192,176,200,216,212,228,248,232,212,204,176,156,176,188,180,196,216,200,180,176,148,128,148,164,156,176,200,184,164,152,128,112,136,152,148,168,192,176,160,156,136,120,136,148,140,152,176,164,144,140,112,92,112,128,120,136,156,140,116,108,84,64,84,100,96,108,128,112,92,92,72,56,80,100,96,116,144,132,116,116,92,72,88,108,108,128,152,136,124,124,108,96,120,140,140,168,196,188,176,176,160,144,160,176,180,204,228,220,208,208,196,184,204,212,192,200,212,192,168,156,128,104,112,124,120,140,164,144,120,108,80,56,72,84,80,100,128,120,104,108,92,80,104,128,128,148,172,164,152,152,128,96,96,96,80,100,136,156,192,264,356,488,672,868,1028,1196,1360,1504,1656,1820,1928,1976,1976,1904,1748,1552,1276,896,508,212,-4,-156,-224,-260,-276,-236,-168,-132,-100,-60,-52,-60,-32,-8,-4,16,40,32,20,16,0,-20,-4,8,4,24,52,48,32,24,0,-20,-8,4,0,16,44,40,24,20,0,-20,-4,4,0,12,40,32,12,12,-4,-28,-12,0,0,16,48,44,36,40,28,12,32,56,60,88,124,124,116,124,112,104,136,168,180,216,264,272,272,284,276,260,284,304,304,328,356,348,328,320,292,260,260,268,252,256,268,244,212,192,152,108,100,92,68,64,68,44,16,0,-36,-76,-72,-68,-80,-68,-44,-60,-80,-84,-108,-136,-124,-116,-124,-108,-80,-80,-96,-96,-116,-140,-124,-108,-108,-92,-68,-76,-92,-92,-112,-136,-124,-108,-108,-84,-52,-56,-72,-76,-104,-136,-124,-108,-108,-76,-40,-36,-44,-40,-60,-84,-68,-60,-64,-44,-16,-20,-36,-36,-56,-80,-72,-60,-68,-52,-24,-28,-40,-40,-64,-92,-88,-80,-88,-76,-52,-60,-80,-88,-112,-144,-136,-128,-136,-120,-92,-100,-120,-120,-144,-172,-164,-152,-156,-144,-116,-124,-136,-136,-160,-188,-176,-160,-168,-156,-132,-140,-156,-160,-180,-208,-196,-180,-184,-168,-136,-140,-152,-148,-160,-180,-168,-152,-156,-136,-100,-100,-108,-100,-116,-140,-124,-108,-108,-88,-56,-68,-92,-104,-136,-172,-172,-164,-176,-168,-148,-164,-188,-196,-228,-268,-272,-276,-296,-288,-268,-284,-308,-312,-340,-372,-368,-360,-376,-364,-336,-344,-360,-360,-376,-396,-380,-356,-356,-344,-328,-352,-384,-384,-384,-372,-304,-208,-96,60,256,428,580,728,852,996,1196,1388
2026-03-17 15:24:19,1520,1604,1616,1532,1376,1164,848,460,104,-176,-380,-500,-556,-608,-636,-616,-588,-560,-496,-440,-424,-392,-352,-348,-352,-344,-348,-360,-336,-316,-320,-308,-280,-284,-300,-296,-312,-328,-308,-292,-296,-280,-252,-256,-272,-268,-284,-300,-284,-260,-268,-256,-228,-240,-260,-260,-272,-288,-264,-244,-244,-232,-208,-216,-236,-240,-256,-272,-252,-232,-236,-224,-200,-212,-228,-220,-224,-236,-212,-184,-184,-164,-128,-124,-128,-112,-112,-120,-92,-64,-60,-44,-16,-20,-36,-32,-40,-56,-40,-24,-32,-32,-16,-32,-64,-76,-96,-128,-124,-116,-140,-144,-140,-168,-204,-220,-248,-276,-272,-260,-280,-280,-264,-284,-312,-324,-344,-368,-356,-340,-348,-336,-316,-324,-344,-340,-352,-364,-344,-320,-324,-308,-284,-292,-308,-304,-312,-324,-304,-280,-280,-268,-240,-244,-260,-256,-260,-272,-244,-220,-224,-208,-184,-192,-212,-212,-224,-236,-216,-192,-200,-192,-168,-184,-204,-204,-220,-236,-216,-192,-196,-184,-156,-168,-188,-180,-192,-208,-188,-160,-168,-160,-140,-152,-172,-176,-188,-200,-176,-148,-148,-136,-116,-128,-148,-148,-156,-172,-156,-132,-140,-132,-108,-120,-144,-152,-168,-184,-164,-140,-148,-144,-128,-144,-172,-176,-192,-208,-188,-168,-172,-164,-148,-168,-192,-192,-200,-208,-180,-152,-152,-136,-112,-116,-128,-116,-124,-136,-112,-84,-84,-72,-48,-56,-72,-68,-72,-84,-60,-32,-36,-36,-28,-56,-88,-100,-124,-148,-132,-116,-128,-124,-104,-120,-144,-148,-168,-196,-184,-168,-176,-172,-156,-168,-188,-184,-196,-208,-188,-160,-164,-156,-140,-152,-172,-172,-184,-204,-188,-180,-204,-224,-224,-244,-256,-228,-188,-124,0,168,332,516,700,836,956,1116,1284,1436,1580,1668,1648,1576,1456,1240,932,584,208,-100,-280,-392,-484,-524,-508,-500,-480,-436,-404,-380,-328,-288,-276,-256,-220,-224,-236,-228,-232,-244,-220,-192,-192,-184,-160,-168,-180,-172,-176,-188,-168,-136,-136,-120,-96,-100,-116,-108,-112,-124,-100,-72,-76,-64,-40,-44,-60,-56,-64,-80,-60,-32,-32,-24,0,0,-8,0,0,-12,12,40,40,60,92,96,92,112,120,116,152,188,196,220,260,264,260,280,288,288,316,352,356,372,404,404,388,392,392,376,392,408,396,396,412,392,356,344,320,284,280,284,260,248,252,228,196,184,160,124,128,136,124,116,132,116,92,84,68,40,52,68,60,60,84,76,56,56,48,24,40,64,56,60,84,76,56,60,52,32,48,76,72,80,108,100,80,84,72,52,72,92,80,84,104,96,80,88,76,52,64,80,72,80,100,92,68,68,56,36,52,72
2026-03-17 15:24:20,64,64,88,80,60,56,40,16,28,48,36,36,56,48,24,20,8,-4,8,28,20,24,44,36,16,16,8,-8,0,20,16,20,36,28,8,8,0,-16,0,20,16,24,48,40,24,28,20,4,24,52,52,64,92,92,80,88,88,72,92,120,112,124,152,156,144,152,148,132,156,184,188,204,232,228,208,204,192,172,184,204,196,200,220,216,196,200,188,160,164,176,160,160,176,164,144,144,136,116,128,152,148,160,188,188,172,180,176,156,168,196,184,176,184,164,132,132,132,144,212,316,436,604,804,980,1124,1268,1412,1564,1760,1948,2072,2136,2136,2032,1848,1604,1264,848,484,220,32,-80,-136,-176,-196,-168,-136,-112,-56,0,16,36,72,80,72,84,84,72,88,116,108,112,132,128,112,120,116,100,116,140,132,132,156,152,132,136,132,112,124,148,140,144,168,168,148,156,152,132,152,176,176,180,208,208,196,200,200,188,208,240,240,248,276,276,268,284,288,284,312,348,356,376,412,424,428,452,464,460,488,520,524,540,572,572,556,568,568,552,560,584,572,568,580,568,536,528,504,468,464,464,436,420,424,400,360,344,316,280,272,272,248,236,248,232,204,196,180,152,156,168,152,152,172,164,136,136,128,100,108,120,108,108,128,120,96,92,84,60,64,80,68,64,88,84,68,68,56,32,36,52,40,40,64,60,40,44,36,16,24,44,32,32,52,52,28,28,24,4,16,36,28,28,52,52,36,36,36,16,28,44,36,36,60,56,36,40,36,16,24,40,32,40,68,68,48,52,44,24,36,56,44,44,68,64,44,44,36,12,20,40,28,28,48,48,28,28,20,0,4,24,20,24,48,48,36,40,40,24,36,64,68,80,112,116,100,104,100,84,96,120,120,132,164,176,164,172,168,144,148,164,148,140,156,148,128,124,116,88,92,112,100,88,100,84,52,40,24,-4,0,12,8,16,40,40,20,24,20,0,8,28,24,24,44,44,20,4,-16,-56,-60,-32,-20,20,108,196,304,456,616,764,932,1096,1240,1412,1616,1776,1868,1904,1852,1724,1564,1340,1004,624,296,36,-148,-264,-340,-392,-376,-324,-288,-244,-184,-156,-160,-148,-144,-156,-136,-108,-108,-100,-76,-76,-100,-104,-116,-136,-128,-96,-96,-92,-68,-68,-88,-92,-100,-120,-104,-76,-76,-68,-40,-40,-64,-64,-72,-92,-76,-48
2026-03-17 15:24:21,-48,-44,-12,-12,-32,-28,-36,-56,-40,-8,-8,0,32,40,32,44,44,32,52,88,96,112,152,160,152,164,172,164,188,224,236,248,288,300,288,300,300,284,300,332,328,332,360,360,336,336,324,296,292,304,288,276,284,268,232,212,188,148,136,144,124,112,124,112,76,64,48,12,8,24,20,20,40,36,8,4,-4,-28,-20,0,0,4,28,32,12,16,12,0,4,32,32,36,64,64,44,40,36,20,28,56,56,60,84,84,64,60,52,28,40,64,60,64,92,92,72,72,68,44,52,76,68,72,92,88,68,68,60,36,44,64,60,64,88,88,68,64,52,24,28,48,44,48,76,76,48,44,32,8,12,32,32,32,56,56,32,24,16,-8,-4,12,4,4,28,28,4,0,-12,-36,-36,-16,-24,-28,0,0,-20,-24,-28,-56,-52,-28,-28,-28,-4,0,-20,-20,-16,-16,8,52,60,68,100,104,84,76,56,12,-4,-12,-52,-88,-100,-136,-184,-208,-240,-288,-304,-300,-324,-340,-340,-364,-404,-420,-440,-472,-472,-456,-464,-468,-448,-448,-468,-476,-492,-524,-524,-508,-516,-516,-496,-496,-520,-524,-540,-584,-600,-584,-588,-568,-504,-444,-376,-252,-104,40,224,412,552,708,912,1108,1256,1376,1416,1360,1276,1156,932,640,320,-4,-272,-436,-540,-624,-640,-600,-560,-504,-416,-360,-336,-304,-280,-280,-248,-204,-192,-176,-136,-124,-132,-124,-120,-136,-120,-88,-80,-68,-32,-20,-28,-24,-20,-36,-24,8,16,24,60,72,56,60,60,40,48,80,88,96,136,148,132,140,140,124,132,164,176,192,228,244,236,248,252,240,260,300,316,336,384,412,412,436,452,448,472,524,544,564,612,636,636,652,664,652,672,708,712,724,760,776,760,756,752,720,716,732,724,716,732,724,688,668,644,604,592,604,584,568,580,572,536,520,500,464,460,472,464,460,480,480,452,444,432,400,400,420,416,420,452,456,436,432,420,392,396,420,416,420,448,452,428,424,416,392,396,420,416,412,436,440,416,412,400,372,372,392,384,384,408,408,384,380,372,344,344,364,360,356,380,380,356,352,344,316,316,340,332,332,356,356,336,332,324,296,292,308,304,304,324,328,304,296,288,256,252,268,256,252,276,276,252,244,236,208,204,224,216,212,232,232,208,204,192,160,156,176,176,176,200,204,188,188,184,164,168,192,192,188,212,212,188,188,180,152,152,176
2026-03-17 15:24:22,180,188,220,220,196,188,172,136,132,148,140,132,152,152,128,124,112,84,76,84,64,44,56,44,16,12,0,-24,-24,-4,-8,-8,12,16,0,0,-4,-24,-20,0,-4,-8,4,-8,-48,-68,-84,-108,-88,-28,32,132,288,456,612,784,936,1052,1212,1416,1596,1752,1880,1900,1816,1684,1484,1176,824,460,124,-100,-228,-324,-400,-424,-416,-404,-356,-288,-256,-228,-184,-168,-180,-172,-168,-184,-176,-144,-144,-148,-124,-120,-136,-136,-136,-152,-148,-116,-112,-108,-80,-72,-92,-96,-96,-112,-104,-76,-76,-80,-56,-48,-60,-56,-52,-68,-60,-32,-36,-36,-8,0,-12,-8,0,-12,0,32,40,52,88,100,92,108,124,116,136,176,192,204,244,272,272,288,308,308,336,380,392,404,440,456,440,444,452,436,440,468,468,464,480,476,448,432,412,380,368,372,348,324,324,304,256,228,196,152,136,140,116,92,96,84,48,28,16,-12,-16,0,-12,-20,0,0,-24,-32,-36,-60,-56,-32,-36,-44,-28,-24,-44,-44,-52,-80,-76,-52,-52,-56,-32,-24,-44,-48,-52,-72,-68,-44,-48,-52,-28,-20,-40,-40,-36,-56,-48,-24,-24,-28,-4,0,-24,-28,-28,-52,-52,-32,-36,-36,-12,-12,-36,-40,-44,-64,-64,-44,-52,-56,-32,-28,-52,-56,-60,-88,-88,-60,-64,-68,-48,-40,-60,-64,-64,-88,-88,-64,-60,-60,-40,-36,-60,-68,-72,-96,-96,-72,-76,-80,-56,-48,-64,-68,-68,-88,-84,-56,-48,-48,-20,-12,-28,-28,-28,-48,-48,-24,-24,-24,0,12,0,12,20,0,0,16,8,0,20,24,4,0,-4,-28,-32,-16,-24,-28,-12,-24,-60,-76,-88,-120,-128,-104,-112,-120,-96,-88,-112,-112,-116,-140,-140,-120,-120,-120,-92,-84,-104,-108,-124,-164,-184,-172,-180,-176,-128,-72,-16,92,244,392,572,772,924,1072,1264,1452,1608,1760,1848,1824,1740,1612,1380,1060,696,312,-16,-220,-352,-456,-500,-484,-464,-428,-356,-300,-288,-268,-256,-268,-260,-228,-224,-216,-184,-172,-188,-188,-192,-212,-212,-188,-184,-184,-152,-140,-152,-156,-160,-184,-188,-164,-160,-160,-128,-112,-124,-124,-120,-140,-140,-112,-108,-108,-76,-64,-76,-76,-80,-100,-100,-68,-56,-52,-20,-4,-12,-12,-8,-24,-16,16,28,36,72,92,92,104,120,112,124,164,184,196,236,256,248,256,264,248,256,280,284,284,312,320,300,292,280,248,236,244,228,216,228,220,184,160,140,96,68,72,52,28,36,28,0,-20,-36,-76,-92,-84,-92,-104,-88,-88,-112,-124,-132,-164,-168,-152
2026-03-17 15:24:23,-156,-164,-136,-128,-144,-144,-144,-168,-172,-152,-156,-164,-144,-132,-152,-156,-156,-176,-176,-152,-152,-160,-132,-120,-144,-148,-148,-172,-176,-152,-152,-160,-136,-132,-152,-160,-168,-196,-200,-176,-180,-184,-160,-148,-164,-164,-168,-192,-196,-176,-180,-184,-160,-148,-168,-172,-180,-208,-216,-192,-196,-204,-180,-172,-196,-200,-204,-232,-240,-220,-224,-228,-204,-196,-216,-220,-224,-252,-256,-232,-236,-240,-216,-208,-224,-228,-232,-264,-268,-244,-244,-244,-216,-204,-216,-216,-212,-228,-224,-200,-200,-200,-176,-164,-184,-184,-180,-200,-200,-176,-168,-164,-128,-108,-124,-132,-140,-172,-184,-168,-176,-188,-168,-164,-188,-200,-208,-240,-248,-240,-256,-280,-276,-284,-316,-332,-344,-380,-392,-380,-388,-404,-392,-392,-428,-456,-492,-560,-620,-656,-720,-784,-824,-888,-996,-1096,-1196,-1312,-1396,-1440,-1484,-1508,-1460,-1396,-1332,-1240,-1144,-1076,-988,-856,-720,-592,-468,-424,-492,-616,-784,-1048,-1372,-1736,-2136,-2484,-2704,-2864,-2996,-3068,-3100,-3120,-3100,-3048,-3024,-3012,-2984,-2980,-3004,-3012,-3016,-3036,-3040,-3020,-3024,-3032,-3012,-3012,-3036,-3044,-3048,-3068,-3068,-3044,-3040,-3044,-3024,-3016,-3040,-3044,-3040,-3056,-3052,-3020,-3012,-3012,-2984,-2972,-2996,-2996,-2992,-3004,-3000,-2964,-2952,-2948,-2916,-2904,-2916,-2912,-2908,-2916,-2904,-2868,-2856,-2852,-2820,-2804,-2812,-2808,-2792,-2796,-2776,-2728,-2704,-2684,-2644,-2616,-2616,-2596,-2568,-2564,-2540,-2492,-2468,-2448,-2408,-2380,-2380,-2368,-2356,-2364,-2348,-2312,-2300,-2300,-2272,-2256,-2276,-2280,-2280,-2300,-2304,-2280,-2284,-2296,-2284,-2284,-2312,-2328,-2332,-2360,-2372,-2352,-2360,-2376,-2356,-2352,-2376,-2384,-2384,-2404,-2404,-2380,-2376,-2376,-2352,-2336,-2352,-2348,-2344,-2356,-2352,-2320,-2308,-2304,-2280,-2264,-2280,-2280,-2272,-2284,-2276,-2244,-2228,-2224,-2196,-2180,-2192,-2188,-2176,-2184,-2172,-2132,-2120,-2116,-2080,-2060,-2076,-2068,-2056,-2064,-2052,-2012,-2004,-2000,-1968,-1952,-1960,-1956,-1948,-1964,-1952,-1920,-1904,-1900,-1872,-1856,-1868,-1864,-1852,-1860,-1852,-1820,-1808,-1808,-1784,-1768,-1784,-1784,-1772,-1780,-1776,-1740,-1728,-1724,-1696,-1684,-1696,-1692,-1680,-1696,-1688,-1652,-1644,-1644,-1620,-1604,-1616,-1612,-1600,-1612,-1608,-1572,-1560,-1560,-1528,-1508,-1520,-1520,-1512,-1524,-1520,-1484,-1472,-1464,-1428,-1408,-1416,-1412,-1396,-1404,-1392,-1352,-1336,-1328,-1296,-1276,-1288,-1280,-1264,-1268,-1256,-1224,-1204,-1188,-1144,-1116,-1120,-1120,-1116,-1132,-1136,-1112,-1108,-1116,-1096,-1084,-1104,-1104,-1096,-1112,-1112,-1088,-1088,-1100,-1088,-1084,-1108,-1112,-1108,-1124,-1120,-1088,-1076,-1072,-1040,-1020,-1032,-1028,-1020,-1032,-1024,-992,-980,-980,-952,-940,-968,-988,-1000,-1028,-1024,-976,-936,-884,-776,-640,-504,-332,-148,0,144,316,488,668,856,984,1004,960,868,704,488,224,-108,-444,-680,-840,-972,-1044,-1076,-1092,-1060,-984
2026-03-17 15:24:24,-932,-896,-840,-804,-804,-792,-776,-780,-768,-732,-724,-720,-688,-668,-684,-684,-672,-680,-668,-636,-628,-624,-596,-580,-592,-588,-580,-588,-580,-548,-536,-536,-512,-496,-508,-508,-496,-508,-496,-460,-448,-444,-412,-392,-404,-400,-388,-396,-388,-352,-336,-328,-292,-272,-284,-280,-264,-268,-252,-208,-188,-180,-144,-112,-112,-100,-76,-72,-48,-4,16,28,68,92,88,96,108,100,108,140,148,148,176,188,168,164,160,136,132,152,144,124,128,124,92,72,60,24,8,16,8,-4,0,0,-32,-44,-48,-72,-80,-60,-64,-72,-60,-52,-76,-80,-84,-104,-112,-84,-76,-80,-56,-48,-68,-68,-64,-80,-80,-52,-48,-56,-28,-16,-36,-40,-32,-44,-44,-20,-12,-16,4,20,4,0,8,0,0,28,36,32,52,60,44,40,44,24,28,56,60,52,76,88,72,68,68,52,48,72,76,68,92,104,84,80,84,68,64,84,88,80,96,108,88,84,88,68,68,92,96,88,112,124,104,100,104,88,88,112,112,104,128,144,132,132,140,120,112,136,148,152,180,196,180,180,192,176,180,212,220,216,240,256,248,256,280,276,276,292,284,272,288,296,276,268,268,244,236,256,256,252,268,268,236,216,208,176,164,188,188,180,200,212,196,196,204,188,188,216,220,212,236,248,232,232,236,208,180,180,164,148,176,212,240,312,428,556,724,928,1104,1240,1400,1572,1736,1908,2060,2124,2116,2056,1916,1696,1420,1068,668,352,152,4,-80,-104,-112,-104,-44,12,44,76,108,104,116,152,164,164,192,212,200,200,208,184,180,204,204,200,220,236,224,224,232,212,204,228,232,232,260,276,260,256,268,252,248,276,276,272,300,320,308,308,316,300,300,328,336,332,360,384,372,376,388,376,380,412,420,420,456,484,480,492,512,504,512,552,572,580,616,648,648,660,676,668,672,700,708,700,724,740,728,724,724,700,688,700,692,672,684,688,652,632,616,576,552,552,532,504,508,508,476,460,448,408,384,392,380,360,376,380,356,348,344,320,304,316,312,300,320,336,316,312,312,292,284,304,304,288,308,324,312,304,308,284,280,296,296,284,308,328,312,308,316,292,284,304,304,296,320,336,324,320,324,304,296,312,312,300,320,340,324,320,324,304,296,312,312,300,320,332,316,312,312,288,280,300,300,284,304,320,300,296,296,276,268,292,288,276,292,308,292,288,292,272,260,280
2026-03-17 15:24:25,280,268,284,300,284,284,292,272,268,292,300,292,316,336,328,328,336,320,308,328,332,328,352,372,360,364,380,372,376,404,404,384,396,400,380,368,364,340,324,336,336,320,336,344,320,304,292,256,232,240,232,212,228,240,224,220,228,208,200,224,228,216,236,248,232,228,236,216,200,204,184,152,160,176,172,204,272,344,460,636,808,968,1144,1300,1440,1612,1804,1948,2052,2104,2060,1940,1784,1544,1196,816,476,208,32,-56,-116,-148,-116,-68,-44,-4,32,36,44,80,92,88,112,128,120,120,132,116,104,120,116,108,128,148,136,140,148,132,124,140,140,132,152,172,164,168,176,160,148,172,176,168,192,212,200,208,220,204,200,220,220,208,232,252,244,252,264,252,244,268,272,268,296,320,316,328,352,344,352,384,396,396,428,460,460,472,492,484,488,516,520,512,536,556,548,552,564,544,532,544,536,516,524,532,508,492,484,448,420,424,404,376,372,372,340,320,308,272,248,256,240,212,220,228,204,192,196,172,156,168,164,144,156,172,156,152,160,144,132,148,144,128,148,168,156,152,156,136,132,152,152,140,160,176,164,160,168,152,148,164,164,152,172,188,176,176,188,172,164,180,176,160,176,188,172,172,180,164,152,172,168,152,172,184,168,164,168,152,144,164,160,144,160,172,160,156,160,144,132,148,144,128,144,156,136,132,140,124,112,128,124,112,128,140,128,124,132,116,108,128,128,116,136,160,152,152,168,156,148,172,172,160,176,192,180,184,192,180,180,208,216,216,244,260,244,236,240,216,200,212,200,176,184,196,180,172,176,152,132,140,124,96,100,104,84,80,88,72,60,76,76,60,80,96,84,84,92,72,64,84,84,68,84,88,56,36,28,12,16,60,108,168,300,460,612,776,948,1076,1208,1392,1572,1716,1844,1896,1844,1748,1612,1384,1088,768,436,160,-4,-112,-200,-240,-236,-224,-192,-128,-92,-80,-48,-20,-24,-16,0,-12,-16,4,4,-4,12,28,12,8,16,4,0,20,24,12,28,44,32,32,48,36,36,60,64,56,76,92,76,76,92,80,76,104,108,100,120,132,120,124,140,132,132,160,164,156,176,196,188,192,212,208,212,244,260,256,284,312,312,328,356,356,364,404,420,420,448,472,464,472,488,476,476,500,504,492,504,516,492,484,492,468,456,468
2026-03-17 15:24:26,456,432,432,428,392,372,368,340,316,324,308,280,284,284,260,248,244,220,208,220,216,192,200,208,192,188,192,176,168,184,188,172,184,196,180,176,184,164,160,184,188,176,192,204,192,192,204,188,184,208,212,200,216,232,220,216,228,212,208,232,232,216,228,244,232,228,240,224,220,240,244,228,244,256,240,236,248,236,228,248,248,236,248,264,248,248,260,248,240,260,260,248,264,276,260,260,272,256,248,268,268,252,264,276,264,260,268,252,248,268,268,256,268,284,268,264,272,256,256,280,284,272,288,304,296,296,312,304,304,332,344,336,348,360,348,348,356,344,344,380,396,396,424,440,420,412,420,400,384,396,392,372,376,384,368,364,372,352,336,336,320,292,296,300,284,280,292,276,272,296,300,284,296,304,292,296,308,292,284,308,312,292,296,292,260,240,240,232,248,316,384,460,608,780,940,1104,1264,1384,1516,1704,1872,1992,2080,2096,2012,1888,1716,1444,1112,776,468,240,112,28,-44,-64,-40,-16,16,80,120,132,164,188,180,184,204,200,200,228,236,228,248,264,256,260,272,260,248,268,264,244,256,268,256,256,268,260,260,288,292,272,284,300,288,292,308,300,308,336,344,332,344,360,352,356,372,368,372,404,412,400,416,436,424,432,452,452,460,496,508,504,532,560,556,568,600,608,620,660,676,676,700,724,720,724,740,736,728,756,760,740,748,756,732,724,724,704,688,700,684,652,648,640,604,580,568,540,516,520,508,476,476,476,448,432,432,408,392,404,400,372,376,384,364,352,356,340,332,352,356,340,348,360,340,336,348,332,324,348,348,332,344,360,344,344,356,344,340,364,368,348,360,372,356,356,364,352,348,372,368,352,364,380,360,360,372,360,356,376,376,356,364,376,360,356,368,352,344,368,364,344,352,360,340,332,344,332,328,348,348,332,344,360,344,336,348,332,320,340,340,316,328,340,320,316,324,312,304,324,324,304,312,328,312,312,328,316,312,340,348,332,352,368,356,360,376,364,356,376,376,360,376,388,372,380,404,400,400,424,420,392,396,404,384,372,376,356,340,360,356,332,340,344,312,292,292,268,248,260,256,232,240,248,232,228,244,228,220,240,248,228,236,252,236,232,240,224,208,212,192,156,160,180,188,232,312,408,544,728
2026-03-17 15:24:27,900,1056,1216,1368,1512,1684,1868,2000,2072,2084,2004,1852,1664,1396,1028,660,364,144,0,-76,-124,-156,-128,-76,-48,-8,32,40,44,76,88,76,92,108,96,96,112,100,92,112,112,96,112,132,124,124,140,124,112,136,132,116,128,152,140,144,160,152,144,164,164,144,160,176,168,168,184,172,160,180,184,172,188,208,200,208,228,220,216,240,244,232,252,276,276,288,316,316,316,352,368,364,392,424,424,440,464,464,464,488,496,484,504,524,512,516,528,512,500,516,508,484,488,492,468,452,444,412,384,380,356,320,316,316,284,268,264,232,208,212,200,168,168,172,148,144,152,132,116,124,112,88,96,108,92,88,96,84,72,92,92,72,80,96,84,84,92,76,68,84,84,64,76,92,80,84,96,80,72,96,96,80,92,108,96,96,108,100,88,104,104,84,92,104,92,92,104,88,76,92,88,68,76,88,76,76,88,72,56,72,72,52,64,76,64,64,76,60,52,68,64,44,52,68,56,60,72,56,44,60,56,36,48,60,48,44,60,48,40,56,52,36,44,60,52,52,72,64,64,92,96,80,92,112,100,100,116,104,100,120,124,108,132,160,164,172,184,164,148,160,152,124,128,136,120,112,120,104,92,104,92,64,56,60,36,24,32,16,8,24,24,4,16,28,12,12,24,16,8,28,24,8,16,32,16,8,4,-24,-52,-44,-36,-28,20,104,196,336,512,672,828,996,1132,1272,1464,1652,1772,1832,1828,1732,1592,1412,1136,776,436,164,-48,-184,-260,-320,-340,-300,-264,-244,-196,-148,-144,-132,-108,-112,-112,-88,-80,-96,-84,-68,-84,-88,-76,-92,-100,-80,-76,-92,-76,-56,-68,-72,-60,-68,-72,-52,-48,-60,-48,-36,-48,-48,-28,-36,-44,-24,-20,-32,-20,0,-12,-12,0,-4,-4,16,24,16,32,52,44,44,60,56,56,88,100,96,124,152,148,160,184,188,196,232,252,252,276,300,300,308,328,324,324,348,356,340,356,368,356,352,364,344,332,348,340,312,308,308,276,256,252,220,196,200,184,148,140,136,108,92,92,68,48,60,52,24,24,28,8,0,4,0,-12,4,0,-12,-4,4,-8,-12,0,-4,-12,4,4,-8,0,12,0,0,20,12,8,32,36,20,32,48,36,40,52,44,40,68,72,56,68,84,76,76,92,84,76,96,92,76,88,104,92,96,108,100,92,112
2026-03-17 15:24:28,116,92,100,116,104,100,116,100,92,108,108,92,108,128,116,116,128,116,108,128,128,112,124,140,128,128,140,128,120,144,144,128,140,152,136,136,152,144,136,156,156,140,152,168,156,156,176,172,168,196,204,192,204,224,212,212,228,220,212,236,244,232,252,280,280,292,316,308,300,316,312,288,292,304,284,276,284,268,256,272,272,248,248,244,216,200,204,188,176,188,188,168,176,188,176,176,192,184,180,204,204,184,196,212,196,196,208,184,156,156,136,112,136,184,220,292,416,556,716,908,1076,1196,1336,1500,1660,1820,1948,1988,1956,1888,1744,1516,1240,912,552,276,104,-24,-112,-136,-148,-148,-96,-36,-8,20,56,56,56,84,92,80,96,120,116,120,132,116,108,128,128,116,132,148,136,140,152,140,132,148,152,140,152,172,164,168,180,172,168,192,192,180,200,224,216,216,232,224,224,248,256,248,264,288,280,284,304,300,300,332,340,332,356,384,384,400,428,428,432,464,480,476,500,536,540,552,576,572,568,592,600,588,600,624,620,620,632,616,604,616,604,576,576,584,560,544,540,512,484,488,468,432,420,420,388,368,364,336,316,324,312,288,292,296,272,260,268,248,232,244,240,220,224,236,224,220,232,224,212,228,220,200,212,228,216,216,232,216,208,228,224,208,224,240,228,228,240,232,220,240,240,224,236,252,240,236,248,232,220,236,236,216,224,236,220,220,236,220,208,224,224,208,216,232,216,216,224,212,200,212,212,196,204,220,204,200,208,196,184,196,196,176,188,204,188,184,192,176,164,180,176,156,164,180,168,164,176,164,152,168,168,152,164,184,172,176,192,184,176,196,200,184,196,216,204,204,220,212,204,228,228,216,232,264,264,272,288,276,260,268,256,228,232,244,224,220,228,216,204,216,212,176,168,168,144,128,132,112,100,120,120,104,112,128,116,112,124,116,108,132,128,108,116,136,124,112,112,80,48,52,52,52,100,172,248,372,544,708,872,1052,1192,1324,1504,1692,1836,1944,1988,1924,1804,1648,1396,1048,680,356,96,-60,-152,-228,-264,-244,-212,-188,-132,-80,-64,-48,-24,-28,-28,0,0,-8,4,20,12,8,20,8,0,16,24,8,24,40,28,28,36,24,16,36,36,20,36,60,48,48,64,48,40,64,72,60,76,92,80,80,100,88,80,108
2026-03-17 15:24:29,116,108,128,152,144,148,168,160,160,192,204,196,220,248,248,260,288,288,296,332,356,356,380,408,408,416,440,436,436,460,464,452,464,480,468,460,468,448,428,436,424,396,396,396,364,340,332,296,268,268,248,212,208,208,176,156,152,124,104,108,100,76,76,84,64,52,56,36,24,40,36,16,24,32,16,12,20,4,-4,8,8,-8,0,8,-8,-12,-4,-20,-28,-8,-8,-28,-20,-8,-20,-24,-16,-28,-40,-20,-20,-36,-24,-8,-24,-28,-16,-28,-40,-24,-24,-40,-32,-16,-24,-28,-16,-32,-40,-24,-28,-48,-44,-32,-44,-48,-36,-48,-56,-36,-40,-60,-52,-36,-48,-48,-40,-52,-60,-44,-44,-68,-60,-48,-60,-68,-56,-68,-80,-64,-68,-92,-80,-68,-80,-84,-72,-84,-92,-76,-80,-100,-88,-76,-84,-84,-72,-80,-84,-60,-56,-72,-56,-36,-40,-36,-20,-32,-40,-20,-20,-36,-24,-8,-16,-8,16,16,16,36,32,8,8,16,0,-8,0,-16,-28,-16,-20,-44,-40,-32,-52,-64,-68,-92,-112,-104,-112,-136,-124,-112,-124,-124,-108,-120,-128,-108,-108,-128,-116,-100,-112,-112,-96,-108,-116,-112,-128,-168,-176,-164,-168,-144,-80,-16,80,244,408,564,740,900,1024,1184,1376,1528,1636,1696,1664,1552,1424,1224,920,576,256,-16,-208,-312,-388,-444,-440,-404,-376,-336,-284,-264,-256,-224,-212,-224,-204,-184,-192,-192,-168,-176,-188,-172,-176,-196,-184,-168,-176,-168,-148,-156,-164,-144,-148,-164,-152,-132,-140,-136,-116,-120,-128,-108,-112,-132,-120,-96,-100,-96,-76,-80,-84,-68,-64,-80,-68,-48,-52,-48,-24,-24,-28,-4,0,-12,4,28,28,36,60,64,68,100,116,108,128,156,160,176,204,208,216,240,248,240,256,276,272,276,296,284,272,288,280,256,256,260,240,228,232,204,180,180,160,120,112,108,80,64,60,36,12,12,0,-32,-36,-32,-56,-68,-64,-80,-96,-88,-96,-120,-116,-104,-116,-116,-104,-112,-124,-108,-112,-136,-132,-116,-128,-128,-112,-120,-128,-112,-112,-128,-120,-104,-112,-112,-96,-104,-112,-92,-88,-108,-100,-84,-92,-88,-72,-80,-88,-72,-72,-92,-84,-68,-76,-76,-60,-72,-80,-64,-68,-92,-84,-68,-80,-84,-68,-80,-92,-76,-76,-100,-92,-76,-88,-92,-76,-88,-96,-76,-80,-104,-96,-80,-92,-92,-80,-88,-96,-80,-80,-104,-96,-80,-92,-96,-80,-88,-96,-84,-88,-108,-96,-80,-92,-88,-72,-84,-92,-68,-68,-88,-76,-56,-64,-56,-36,-40,-40,-20,-16,-28,-12,4,0,0,16,8,0,20
2026-03-17 15:24:30,24,4,20,48,52,68,92,88,72,84,76,48,52,64,48,44,56,44,32,48,40,12,8,12,-8,-16,-12,-28,-44,-32,-36,-56,-44,-28,-40,-40,-20,-24,-28,-8,-12,-32,-24,-8,-16,-20,-8,-24,-44,-44,-56,-80,-60,-20,12,88,220,360,516,708,872,992,1140,1308,1464,1616,1736,1760,1716,1644,1504,1288,1020,708,368,108,-52,-188,-276,-300,-312,-312,-264,-204,-176,-140,-100,-96,-92,-60,-48,-60,-44,-20,-24,-24,-8,-24,-32,-12,-12,-28,-12,0,-4,0,12,4,0,12,16,0,12,32,20,20,40,32,28,52,56,40,56,72,64,68,92,88,84,104,108,92,108,132,128,136,160,152,152,176,184,172,196,224,224,240,276,280,284,320,336,336,360,392,396,412,440,440,444,472,480,468,484,504,496,500,516,508,500,512,504,476,480,484,456,440,440,416,388,388,368,332,324,324,296,280,276,252,228,232,216,180,180,188,172,164,172,156,144,156,148,124,128,144,128,128,140,128,116,132,124,100,112,128,116,112,128,120,112,128,128,108,120,140,128,128,144,136,132,148,148,128,136,152,140,140,160,152,144,160,156,136,148,168,156,152,168,156,148,164,160,140,152,168,156,156,168,152,144,164,168,144,152,168,152,152,160,148,136,152,152,128,136,148,136,136,148,136,128,148,144,124,132,148,136,136,148,136,124,140,136,112,120,132,120,124,140,136,132,156,156,140,160,180,176,188,208,204,200,220,220,200,208,228,216,220,240,236,240,272,284,268,280,292,272,264,272,256,244,256,248,220,224,232,216,212,220,196,168,168,152,124,128,136,124,124,136,128,124,144,144,120,132,148,136,140,156,148,140,156,148,120,112,108,76,68,92,112,148,240,344,464,640,832,992,1140,1288,1432,1596,1780,1916,1968,1968,1900,1748,1544,1280,916,540,260,56,-96,-176,-212,-236,-216,-164,-128,-92,-36,-12,-20,-4,16,16,28,48,44,36,56,52,28,36,52,40,44,64,64,60,80,80,56,64,76,64,68,92,92,88,112,112,88,96,108,100,104,128,124,120,140,140,120,128,148,144,152,176,180,180,204,208,188,204,224,224,240,268,276,280,312,324,316,336,364,368,388,420,428,436,468,480,468,484,504,500,504,528,528,524,548,544,512,512,520,500,496,500,480,460,464,444,404,388,376,344,324,324,296,272,272
2026-03-17 15:24:31,252,212,200,196,172,160,164,148,132,140,132,100,96,104,88,84,100,92,84,100,96,68,72,84,68,68,84,80,72,88,84,60,68,80,64,64,80,76,72,92,92,72,80,92,76,80,100,92,88,108,104,76,80,88,72,72,92,84,76,92,88,64,68,80,68,68,84,76,64,84,80,52,56,64,48,48,64,56,48,64,60,36,40,52,40,40,56,44,40,56,56,28,32,40,28,28,44,36,32,52,48,28,32,40,28,24,36,28,20,40,40,16,24,40,32,36,56,52,52,76,80,60,72,88,76,76,96,92,88,108,104,84,100,124,124,132,156,144,132,140,128,96,96,104,84,80,92,80,68,80,72,36,28,24,0,-12,0,-12,-20,-4,-12,-32,-28,-16,-32,-28,-12,-16,-20,0,-4,-24,-16,-4,-20,-28,-28,-56,-76,-64,-64,-64,-8,72,164,300,476,640,804,972,1112,1248,1432,1616,1744,1816,1824,1740,1604,1424,1144,772,416,124,-96,-236,-304,-360,-376,-344,-312,-292,-248,-208,-200,-188,-156,-152,-148,-124,-124,-144,-136,-120,-132,-128,-116,-124,-128,-108,-108,-132,-124,-112,-128,-128,-112,-120,-128,-100,-100,-116,-108,-92,-104,-104,-84,-96,-96,-72,-72,-92,-80,-60,-68,-64,-44,-48,-44,-16,-16,-32,-16,0,-4,0,20,20,24,48,56,48,68,96,96,108,136,144,156,192,208,200,224,252,252,264,292,288,292,316,320,308,316,332,316,312,328,316,304,316,308,272,268,264,236,220,216,188,164,168,148,108,96,92,60,44,44,24,4,8,-4,-36,-36,-36,-56,-64,-56,-68,-80,-64,-72,-100,-96,-84,-104,-104,-88,-96,-104,-84,-84,-108,-104,-92,-108,-108,-92,-104,-112,-88,-88,-104,-100,-88,-100,-96,-80,-84,-88,-64,-60,-80,-72,-64,-76,-76,-56,-64,-68,-48,-48,-68,-64,-52,-64,-68,-56,-64,-68,-48,-52,-72,-68,-56,-76,-80,-64,-76,-84,-64,-68,-92,-88,-80,-96,-96,-84,-92,-100,-84,-84,-108,-104,-92,-108,-104,-88,-100,-108,-88,-92,-116,-112,-104,-116,-116,-100,-108,-112,-96,-100,-120,-116,-104,-116,-116,-96,-104,-112,-92,-96,-120,-116,-104,-116,-108,-88,-88,-92,-72,-72,-88,-76,-60,-64,-56,-36,-40,-44,-28,-28,-48,-44,-32,-32,-20,4,12,12,32,24,0,-4,0,-24,-28,-16,-28,-40,-24,-32,-60,-56,-44,-68,-80,-76,-96,-112,-100,-108,-136,-128,-116,-128,-128,-108,-116,-120,-100,-100,-124,-116,-100,-112,-112,-96,-104,-120,-116
2026-03-17 15:24:32,-144,-184,-180,-152,-140,-92,-4,96,236,420,588,728,876,1024,1168,1340,1516,1620,1652,1632,1536,1380,1180,912,568,244,0,-192,-320,-376,-416,-444,-416,-364,-336,-292,-248,-236,-228,-200,-196,-212,-196,-180,-188,-184,-164,-172,-176,-160,-164,-184,-172,-156,-160,-152,-132,-140,-144,-124,-128,-148,-136,-120,-128,-124,-104,-112,-112,-92,-92,-116,-104,-88,-96,-92,-68,-72,-76,-60,-60,-80,-68,-48,-52,-40,-16,-20,-20,0,4,-8,4,28,24,40,72,76,80,112,116,108,128,160,164,176,208,212,224,256,264,248,260,280,276,284,304,300,292,304,292,268,268,276,260,248,252,228,208,208,192,152,136,132,104,92,100,80,60,64,44,8,4,4,-12,-16,-8,-20,-32,-20,-28,-60,-56,-48,-64,-64,-44,-56,-64,-48,-52,-76,-68,-52,-64,-64,-44,-52,-56,-36,-44,-64,-56,-40,-52,-48,-24,-32,-36,-20,-24,-52,-44,-28,-40,-32,-12,-16,-20,-4,-8,-36,-32,-16,-28,-24,-4,-12,-20,0,-8,-32,-28,-12,-24,-16,0,-4,-8,4,0,-20,-16,-4,-16,-16,0,-8,-12,0,0,-20,-12,0,-12,-12,0,-4,-8,8,4,-16,-12,0,-12,-4,12,8,4,20,16,-4,0,12,0,0,20,16,12,28,20,0,4,16,0,4,24,20,16,36,32,12,20,36,28,36,60,64,68,100,96,72,76,88,72,76,100,104,116,152,160,144,156,164,152,152,160,140,124,136,128,104,108,116,100,96,112,96,84,92,72,40,40,44,32,36,56,48,44,64,56,32,40,52,44,52,72,68,60,76,64,28,20,12,-8,0,40,76,136,248,380,516,696,876,1012,1148,1308,1464,1624,1768,1824,1792,1724,1612,1424,1180,876,528,232,44,-100,-220,-276,-284,-288,-248,-180,-140,-108,-60,-52,-64,-48,-28,-32,-20,0,0,0,16,8,-12,-8,0,-4,4,28,28,28,48,44,20,28,44,36,44,68,64,64,84,76,52,64,76,72,84,108,108,108,128,124,100,108,120,112,128,156,156,160,180,176,156,172,196,196,212,248,256,264,296,300,284,304,324,328,352,392,404,416,444,448,432,444,464,464,480,508,508,508,528,520,488,488,496,480,480,496,476,460,464,440,392,376,368,340,324,324,304,284,280,248,204,196,196,172,164,172,160,152,164,148,120,120,120,100,104,128,120,112,128,116,84,84,92,80,84,108,100,92,112,104,80,88,96,84,92,120,120,124,144
2026-03-17 15:24:33,132,100,104,116,112,120,144,140,140,160,148,120,124,136,132,140,156,152,152,168,156,124,128,140,128,136,156,152,152,168,156,124,128,136,120,124,144,140,136,152,140,112,116,124,112,116,136,132,128,140,128,96,96,108,96,104,124,116,112,128,116,88,92,100,88,96,116,108,108,124,112,84,84,92,76,84,108,108,108,124,120,92,100,116,104,116,144,144,144,172,168,148,160,176,164,164,184,176,172,196,196,184,196,208,196,204,220,204,188,192,176,144,148,156,136,140,152,140,128,140,120,84,76,76,56,64,84,80,72,92,84,56,60,68,56,64,88,84,80,96,80,40,24,12,-8,-4,32,60,116,216,324,452,624,808,952,1104,1268,1424,1596,1776,1884,1904,1864,1764,1588,1364,1080,712,360,116,-60,-204,-272,-300,-320,-288,-220,-180,-140,-96,-88,-104,-92,-68,-68,-52,-24,-24,-20,0,-12,-40,-40,-32,-44,-32,-8,-4,-4,8,0,-24,-20,-12,-16,0,20,20,24,40,28,4,8,16,8,28,56,60,60,80,72,44,48,60,52,68,100,104,108,128,120,96,108,124,124,144,180,192,208,240,240,228,244,264,268,292,336,348,360,388,388,368,380,400,396,412,440,448,448,464,452,420,416,416,400,404,416,400,384,380,352,304,288,272,236,228,232,208,188,180,144,96,84,76,52,52,64,48,32,40,16,-16,-20,-20,-36,-28,-8,-16,-20,-12,-32,-64,-68,-60,-72,-60,-36,-40,-40,-28,-40,-72,-72,-68,-80,-76,-52,-56,-56,-36,-48,-76,-72,-68,-80,-72,-48,-48,-44,-28,-40,-76,-72,-64,-80,-72,-48,-52,-52,-36,-52,-80,-80,-76,-88,-84,-60,-68,-68,-56,-72,-104,-100,-96,-108,-100,-80,-84,-84,-68,-84,-116,-116,-116,-128,-120,-100,-104,-108,-88,-100,-128,-128,-124,-136,-128,-108,-112,-112,-96,-108,-140,-140,-132,-148,-140,-116,-120,-120,-104,-120,-148,-148,-144,-160,-148,-124,-128,-132,-112,-128,-160,-156,-148,-156,-144,-112,-112,-112,-92,-100,-128,-124,-112,-116,-100,-68,-68,-64,-44,-60,-92,-92,-88,-96,-76,-44,-32,-24,-4,-20,-52,-52,-52,-72,-72,-56,-64,-68,-56,-72,-104,-104,-104,-128,-128,-116,-128,-136,-124,-144,-176,-176,-172,-188,-176,-152,-156,-156,-140,-152,-184,-188,-188,-204,-200,-188,-212,-236,-244,-276,-312,-296,-264,-228,-140,-4,132,292,476,620,728,872,1040,1208,1376,1504,1528,1476,1388,1224,968,668,328,-12,-256,-412,-532,-604,-620
2026-03-17 15:24:34,-636,-640,-600,-556,-536,-500,-464,-456,-444,-420,-428,-452,-444,-432,-440,-428,-408,-412,-412,-392,-404,-424,-416,-412,-420,-408,-384,-388,-392,-372,-384,-408,-400,-392,-400,-388,-360,-364,-360,-340,-352,-372,-360,-344,-356,-344,-320,-324,-320,-300,-308,-328,-316,-300,-308,-292,-264,-264,-252,-228,-232,-248,-236,-216,-216,-196,-160,-152,-140,-108,-108,-120,-96,-72,-68,-40,-4,0,4,28,24,8,20,32,24,36,60,56,56,68,56,28,28,24,4,4,12,-8,-24,-20,-48,-92,-104,-112,-140,-144,-136,-152,-168,-164,-192,-228,-232,-236,-260,-260,-244,-256,-260,-244,-260,-292,-288,-280,-292,-284,-264,-272,-272,-256,-272,-296,-288,-280,-288,-276,-256,-264,-260,-244,-252,-276,-264,-256,-268,-252,-228,-236,-236,-216,-228,-248,-244,-232,-240,-224,-200,-204,-200,-188,-200,-228,-220,-208,-220,-208,-184,-184,-184,-168,-184,-212,-204,-196,-208,-200,-180,-188,-184,-164,-176,-200,-200,-196,-208,-196,-172,-172,-172,-156,-172,-196,-188,-180,-192,-180,-156,-164,-164,-152,-164,-192,-184,-176,-184,-172,-148,-152,-148,-128,-144,-168,-164,-156,-168,-160,-136,-136,-132,-112,-128,-156,-156,-144,-152,-136,-112,-112,-108,-88,-96,-120,-112,-104,-112,-96,-64,-56,-40,-16,-24,-48,-44,-36,-48,-32,-4,0,12,44,40,12,16,20,0,4,20,4,0,8,-4,-32,-28,-28,-48,-40,-20,-28,-32,-24,-44,-76,-72,-64,-72,-60,-36,-40,-40,-24,-36,-64,-56,-48,-56,-40,-16,-16,-20,-16,-48,-92,-92,-80,-68,-16,64,152,288,464,620,760,916,1052,1184,1360,1544,1664,1736,1752,1668,1528,1368,1140,820,492,220,0,-136,-220,-296,-352,-340,-300,-264,-208,-144,-124,-100,-68,-72,-88,-72,-56,-64,-48,-20,-20,-20,-8,-24,-44,-36,-28,-36,-20,0,-4,-4,8,0,-24,-12,0,0,8,32,32,32,52,44,20,28,40,36,52,80,76,84,100,88,64,80,96,92,116,144,144,148,164,156,136,152,168,168,196,232,244,260,288,288,272,300,328,336,368,408,420,432,452,444,428,448,464,460,480,508,508,508,520,504,472,476,476,456,460,472,448,428,420,384,340,324,316,288,288,296,272,256,256,228,188,180,172,148,152,164,148,140,148,124,92,92,96,84,100,116,108,108,124,104,76,84,92,80,92,108,100,104,116,100,76,84,92,80,96,120,116,116,132,112,84,100,112,112,128,152,148,148,164,144,116,124,124,112,124,148,144,144,156,140,112,120,128,116,132,152,152,152,164
2026-03-17 15:24:35,140,112,116,124,112,124,148,140,140,152,132,104,108,112,100,108,132,124,120,132,108,76,80,84,76,92,112,104,104,120,100,72,80,84,76,92,116,108,112,124,104,76,84,88,76,92,120,116,120,136,116,92,104,112,108,132,164,168,180,200,180,144,144,144,140,160,192,196,208,228,216,188,192,184,164,168,180,168,164,176,152,120,116,112,92,96,112,96,92,100,80,48,52,56,44,64,88,80,80,96,76,48,56,64,56,72,84,60,40,36,8,-8,20,68,124,236,392,548,720,904,1032,1144,1304,1480,1640,1796,1896,1888,1812,1696,1480,1176,840,484,172,-20,-136,-236,-288,-292,-304,-296,-248,-200,-176,-136,-96,-92,-80,-56,-68,-88,-72,-64,-72,-60,-36,-44,-40,-24,-40,-64,-56,-48,-56,-40,-16,-20,-16,-4,-20,-40,-28,-20,-24,-8,12,8,8,20,0,-16,-4,4,0,20,44,36,40,60,44,24,36,48,44,64,88,88,96,120,112,96,112,128,132,164,200,208,224,256,248,240,264,284,288,312,344,348,360,384,376,356,372,380,376,392,412,404,400,408,380,344,340,340,320,320,324,296,280,272,228,184,172,160,128,128,132,104,88,84,52,16,16,12,-4,0,8,0,-8,0,-24,-52,-48,-48,-60,-48,-32,-40,-40,-28,-52,-76,-68,-64,-76,-60,-40,-48,-52,-36,-56,-80,-68,-64,-72,-56,-36,-36,-36,-24,-48,-72,-64,-60,-72,-52,-32,-40,-36,-24,-48,-76,-68,-64,-76,-60,-40,-48,-48,-36,-60,-88,-84,-84,-96,-80,-60,-72,-72,-64,-88,-120,-112,-108,-120,-104,-84,-88,-88,-76,-100,-124,-120,-116,-132,-120,-104,-112,-104,-92,-116,-144,-140,-140,-152,-140,-120,-128,-124,-112,-132,-160,-152,-152,-164,-152,-128,-136,-132,-120,-140,-168,-160,-156,-168,-152,-128,-136,-132,-120,-136,-160,-152,-148,-160,-140,-120,-124,-116,-96,-112,-132,-116,-104,-108,-88,-64,-72,-72,-56,-76,-96,-84,-68,-68,-44,-20,-28,-28,-20,-48,-84,-88,-92,-108,-96,-80,-92,-96,-88,-116,-148,-148,-152,-172,-164,-152,-160,-160,-144,-168,-196,-188,-184,-196,-176,-152,-156,-152,-136,-156,-184,-184,-200,-232,-236,-220,-216,-188,-132,-88,-16,124,288,448,632,800,932,1092,1280,1424,1532,1608,1596,1500,1388,1216,944,616,280,-32,-264,-392,-480,-536,-532,-496,-468,-420,-364,-356,-360,-340,-332,-332,-308,-276,-276,-264,-244,-260,-284,-280,-284,-292,-272,-248,-252,-244,-224,-248,-272,-268,-268,-280,-260,-236,-240,-228,-208
2026-03-17 15:24:36,-228,-252,-244,-244,-252,-232,-208,-208,-196,-180,-196,-216,-208,-204,-216,-192,-164,-160,-148,-132,-148,-172,-160,-160,-164,-136,-104,-100,-80,-56,-64,-80,-60,-44,-44,-12,20,32,52,84,80,68,88,100,100,128,156,164,176,196,176,152,160,160,144,156,176,168,168,172,136,96,88,68,36,36,40,20,8,4,-28,-72,-84,-100,-128,-124,-116,-132,-132,-128,-164,-200,-204,-212,-236,-224,-204,-208,-200,-188,-212,-240,-240,-244,-256,-240,-220,-224,-216,-200,-224,-252,-248,-248,-260,-240,-212,-216,-208,-192,-212,-240,-232,-232,-244,-224,-200,-208,-200,-180,-204,-232,-228,-232,-244,-228,-208,-212,-200,-184,-208,-236,-228,-232,-244,-224,-200,-204,-196,-176,-200,-228,-224,-228,-240,-224,-200,-204,-196,-180,-204,-236,-232,-236,-248,-232,-212,-216,-204,-192,-216,-248,-244,-244,-256,-240,-216,-220,-212,-196,-220,-252,-248,-252,-260,-244,-224,-232,-220,-208,-232,-260,-256,-260,-268,-248,-228,-232,-224,-208,-228,-256,-248,-248,-256,-236,-216,-216,-204,-188,-208,-232,-224,-224,-228,-204,-176,-172,-152,-128,-140,-160,-152,-152,-164,-144,-120,-120,-104,-76,-88,-108,-96,-92,-100,-88,-76,-88,-88,-80,-108,-140,-136,-144,-156,-140,-124,-136,-132,-124,-156,-188,-184,-184,-200,-180,-156,-160,-148,-132,-152,-172,-160,-160,-168,-148,-128,-132,-128,-124,-168,-216,-224,-228,-224,-168,-92,-20,104,268,412,556,728,868,996,1176,1364,1504,1604,1640,1568,1444,1300,1092,804,500,208,-40,-196,-296,-396,-460,-460,-440,-412,-348,-288,-260,-228,-200,-204,-216,-204,-200,-204,-176,-152,-152,-140,-124,-148,-172,-160,-156,-164,-136,-108,-108,-96,-80,-104,-132,-120,-116,-120,-92,-60,-60,-48,-36,-64,-88,-80,-76,-80,-56,-28,-24,-12,0,-24,-44,-32,-24,-24,0,32,36,52,72,52,36,52,60,64,100,140,148,168,188,172,160,188,204,216,260,296,308,332,352,336,320,336,344,348,376,404,404,416,428,400,372,376,372,356,372,388,376,372,368,324,280,268,252,224,228,232,216,208,200,160,120,112,96,76,92,104,92,92,96,64,36,36,32,24,48,68,60,64,68,40,12,20,20,12,36,60,52,60,68,44,20,28,28,20,44,64,60,72,88,64,44,52,52,48,72,92,88,96,108,84,56,60,60,52,80,100,96,104,112,80,56,64,64,56,80,104,100,104,112,84,60,68,68,64,88,108,100,104,112,84,60,68,68,60,84,104,96,100,108,76,52,60,56,44,68,92,92,104,112
2026-03-17 15:24:37,84,56,60,52,40,68,92,88,96,100,72,48,56,56,48,72,96,96,104,116,88,64,72,68,64,92,116,112,124,136,116,96,108,112,116,152,176,164,172,188,164,148,168,172,172,204,228,224,224,224,184,148,144,136,124,144,164,156,160,160,120,84,84,72,60,76,96,92,100,116,92,72,80,80,76,100,124,124,136,140,108,76,68,44,20,40,68,88,144,224,292,404,572,748,916,1092,1252,1396,1572,1744,1848,1900,1904,1828,1688,1520,1276,936,584,292,56,-96,-180,-240,-268,-232,-176,-136,-80,-36,-36,-40,-20,-12,-8,24,52,56,72,84,56,28,32,28,20,44,72,72,88,100,76,56,60,52,44,72,96,104,120,132,104,84,88,88,88,116,140,136,152,164,140,116,124,120,116,148,180,188,204,220,192,172,184,188,188,220,252,264,288,312,296,284,300,312,320,364,404,416,444,468,452,440,460,464,464,496,528,532,548,556,528,496,496,488,476,496,508,500,500,492,444,400,384,360,332,336,336,312,304,296,244,200,188,164,144,152,160,144,144,140,96,60,56,48,32,52,68,64,72,80,48,20,24,16,4,28,48,48,60,68,40,12,16,12,4,28,48,48,64,72,44,20,24,20,12,40,60,60,72,84,56,32,36,32,24,48,68,68,76,84,48,24,28,20,12,36,56,52,64,68,32,8,8,0,-4,12,32,28,40,48,16,-4,0,-8,-16,4,20,16,32,40,4,-16,-12,-16,-28,-4,12,8,20,24,-4,-32,-24,-32,-40,-16,0,0,4,8,-20,-48,-44,-48,-52,-28,-8,-12,0,4,-24,-48,-36,-36,-44,-12,4,8,28,44,20,0,8,0,-8,16,40,44,60,72,44,20,28,20,8,28,40,28,36,36,0,-24,-24,-36,-48,-32,-20,-32,-28,-32,-72,-100,-96,-104,-112,-88,-64,-64,-52,-44,-72,-96,-92,-96,-100,-72,-52,-64,-64,-76,-128,-164,-156,-144,-104,-12,104,228,396,576,716,848,992,1140,1312,1512,1680,1772,1796,1740,1588,1380,1120,780,408,116,-88,-240,-328,-376,-428,-440,-400,-360,-324,-260,-220,-208,-188,-172,-196,-212,-196,-196,-200,-172,-152,-156,-144,-140,-176,-204,-196,-200,-204,-172,-152,-156,-148,-144,-176,-192,-180,-180,-180,-152,-132,-136,-124,-116,-148,-168,-156,-152,-156,-124,-104,-104,-92,-84,-112,-128,-112,-108,-104,-72,-48,-44,-24,-12,-36,-48,-32,-24,-16,24,56,64,88,108
2026-03-17 15:24:38,92,88,116,128,144,188,224,228,248,264,244,228,244,248,252,280,300,296,308,308,272,244,244,228,216,228,232,212,208,196,144,100,88,64,40,48,48,28,20,8,-36,-72,-76,-88,-104,-88,-80,-92,-88,-88,-128,-156,-152,-160,-168,-144,-128,-132,-124,-120,-156,-180,-172,-176,-184,-156,-140,-144,-132,-128,-164,-184,-172,-176,-180,-148,-128,-136,-124,-120,-152,-168,-156,-160,-160,-132,-112,-116,-104,-100,-132,-152,-144,-152,-156,-132,-112,-116,-104,-104,-140,-164,-160,-168,-172,-140,-124,-132,-120,-120,-156,-176,-168,-176,-180,-156,-140,-144,-136,-132,-168,-192,-184,-188,-192,-164,-144,-148,-140,-136,-172,-196,-188,-196,-200,-176,-160,-168,-160,-160,-196,-216,-204,-212,-220,-192,-180,-184,-172,-168,-204,-224,-216,-224,-228,-200,-180,-188,-172,-172,-204,-224,-216,-220,-220,-188,-168,-168,-148,-140,-160,-172,-156,-160,-164,-140,-124,-128,-112,-104,-128,-136,-124,-124,-124,-96,-84,-96,-96,-100,-144,-172,-172,-184,-196,-172,-160,-168,-164,-168,-208,-232,-228,-240,-248,-220,-200,-204,-188,-184,-216,-236,-228,-232,-236,-204,-184,-184,-172,-168,-216,-252,-264,-284,-292,-256,-212,-168,-80,28,136,276,452,608,752,920,1096,1264,1436,1548,1552,1492,1404,1256,1048,800,488,160,-84,-264,-420,-520,-552,-564,-552,-488,-428,-396,-352,-332,-352,-360,-344,-344,-340,-308,-284,-284,-272,-272,-308,-328,-320,-328,-328,-296,-276,-276,-260,-256,-292,-316,-308,-312,-312,-276,-256,-256,-244,-240,-272,-288,-280,-280,-276,-244,-224,-224,-204,-196,-224,-244,-232,-236,-236,-196,-172,-164,-144,-140,-168,-180,-164,-164,-160,-116,-84,-76,-52,-36,-60,-68,-44,-36,-20,24,56,68,96,112,84,76,96,100,104,144,168,168,184,188,156,136,144,132,124,148,164,152,156,144,96,60,48,20,4,16,16,0,0,-16,-68,-108,-116,-132,-148,-132,-124,-136,-128,-132,-176,-204,-200,-212,-216,-188,-176,-184,-176,-176,-208,-228,-220,-228,-228,-200,-184,-188,-176,-172,-208,-224,-212,-220,-220,-188,-176,-176,-160,-156,-188,-204,-192,-196,-192,-156,-136,-136,-120,-116,-152,-168,-160,-164,-160,-128,-112,-112,-96,-96,-132,-152,-144,-148,-148,-116,-100,-100,-84,-84,-116,-136,-132,-140,-140,-112,-96,-100,-88,-88,-124,-144,-136,-144,-148,-116,-96,-96,-76,-72,-108,-128,-120,-132,-132,-104,-88,-88,-76,-72,-104,-120,-112,-120,-120,-92,-76,-76,-60,-60,-96,-116,-108,-116,-112,-80,-60,-64,-48,-48,-80,-100,-88,-96,-96,-68,-48,-48,-28,-24,-52,-64,-52,-48,-40,-4,12,8,24,24
2026-03-17 15:24:39,-4,-16,0,0,4,44,68,76,96,92,48,16,16,4,0,28,40,36,48,44,8,-8,-8,-24,-32,-8,0,-4,8,8,-20,-32,-24,-28,-28,0,20,16,28,28,-4,-20,-12,-24,-40,-32,-32,-36,-8,16,28,72,180,308,472,676,856,992,1136,1284,1412,1556,1676,1720,1696,1648,1532,1344,1104,784,420,128,-52,-192,-288,-312,-320,-312,-264,-216,-208,-192,-156,-144,-132,-88,-56,-44,-24,-16,-48,-60,-52,-56,-56,-28,-16,-16,0,8,-20,-36,-24,-28,-32,-4,8,8,32,40,12,4,12,4,4,36,52,52,76,76,44,32,48,40,40,72,92,96,116,128,104,96,112,108,108,148,168,180,208,224,204,204,224,228,236,280,308,324,356,372,356,352,368,372,384,424,448,452,480,492,464,452,460,452,452,476,484,480,488,480,436,408,400,372,356,364,360,336,336,316,260,228,216,192,180,192,188,172,176,168,124,100,100,84,76,96,104,92,104,96,60,40,44,36,32,60,72,68,88,88,56,40,48,36,36,64,76,76,96,100,68,60,68,60,60,92,108,108,124,128,92,76,84,76,76,108,120,116,132,136,104,88,96,84,84,112,124,120,132,132,96,80,88,80,80,108,120,124,144,144,108,92,100,88,84,112,124,120,136,132,96,84,88,76,72,100,108,104,124,124,84,68,76,64,64,92,104,104,116,116,76,60,68,60,60,88,100,96,116,120,88,76,84,72,72,104,116,120,144,152,128,120,132,120,120,152,164,164,184,192,164,156,168,164,168,192,196,180,184,176,136,116,120,108,100,120,124,112,124,120,72,48,48,32,32,60,76,76,92,92,56,44,48,36,40,72,88,88,100,84,28,-4,-8,-24,-16,40,100,172,304,448,580,740,912,1040,1180,1364,1548,1704,1848,1908,1848,1740,1592,1364,1072,748,408,132,-24,-148,-264,-320,-324,-312,-268,-192,-136,-104,-64,-56,-84,-92,-76,-76,-64,-28,-12,-16,0,-4,-40,-52,-44,-48,-44,-12,0,0,16,12,-20,-36,-28,-32,-24,4,20,20,36,36,0,-8,0,-4,0,36,52,56,72,68,36,24,36,32,40,80,100,108,132,132,104,96,112,112,128,172,196,204,228,236,212,212,240,252,272,320,348,360,388,396,372,368,384,384,396,436,452,452,472,464,424,404,404,388,388,408,408,392,392,372,312,276,260,232,216,232,224,200,200,176
2026-03-17 15:24:40,120,84,76,56,48,68,68,52,60,44,0,-16,-12,-24,-28,-4,0,0,8,0,-36,-52,-44,-52,-48,-16,-4,-8,4,0,-36,-52,-44,-56,-52,-20,-4,-4,4,0,-28,-40,-28,-36,-32,0,8,12,28,28,-4,-20,-16,-24,-20,12,24,16,28,24,-12,-28,-20,-32,-32,0,4,0,12,4,-28,-44,-40,-52,-48,-20,-12,-12,0,-8,-48,-64,-60,-72,-68,-40,-28,-32,-20,-28,-64,-76,-72,-84,-76,-44,-36,-40,-28,-36,-76,-88,-80,-92,-88,-56,-48,-52,-36,-48,-88,-100,-92,-104,-100,-68,-56,-56,-36,-44,-80,-92,-84,-88,-84,-52,-44,-40,-24,-24,-52,-60,-48,-52,-48,-20,-12,-12,0,0,-20,-28,-16,-24,-16,8,12,4,8,-4,-48,-68,-64,-72,-72,-44,-40,-52,-40,-52,-100,-124,-124,-140,-136,-104,-96,-96,-80,-84,-120,-132,-124,-136,-128,-96,-84,-88,-72,-88,-140,-172,-184,-208,-200,-148,-100,-44,56,172,284,436,612,760,904,1088,1268,1440,1608,1700,1680,1612,1508,1332,1096,816,476,152,-68,-240,-384,-456,-476,-484,-448,-376,-328,-296,-256,-248,-276,-280,-268,-272,-260,-224,-212,-208,-192,-196,-236,-244,-236,-244,-236,-204,-192,-192,-172,-180,-216,-232,-224,-232,-220,-180,-164,-164,-148,-156,-192,-204,-196,-200,-184,-148,-132,-128,-112,-116,-156,-164,-156,-160,-148,-108,-88,-84,-64,-64,-96,-104,-92,-92,-76,-36,-16,-8,12,16,-4,-4,8,12,36,84,108,128,160,168,140,136,152,152,172,216,236,236,256,252,212,196,200,188,192,220,224,212,212,188,132,104,92,68,56,72,64,44,44,20,-28,-56,-64,-88,-96,-76,-76,-88,-84,-104,-152,-172,-172,-188,-184,-156,-148,-152,-136,-152,-192,-208,-204,-216,-208,-176,-164,-168,-152,-160,-200,-212,-212,-220,-212,-176,-164,-164,-144,-152,-192,-200,-188,-196,-188,-152,-136,-136,-120,-128,-164,-176,-172,-180,-172,-140,-128,-132,-112,-120,-160,-172,-168,-176,-168,-136,-128,-132,-116,-128,-172,-184,-180,-188,-180,-148,-140,-144,-128,-140,-176,-188,-180,-192,-184,-152,-144,-144,-128,-136,-176,-184,-180,-192,-188,-156,-144,-144,-124,-136,-176,-184,-176,-188,-180,-144,-136,-136,-120,-132,-172,-184,-180,-188,-180,-148,-140,-136,-120,-128,-168,-176,-172,-184,-176,-144,-132,-128,-112,-116,-148,-156,-140,-140,-120,-80,-68,-68,-52,-64,-100,-100,-84,-88,-72,-36,-20,-12,0,-16,-60,-76,-76,-96,-96,-68,-60,-64,-48,-64,-108,-128,-124,-140,-136,-108,-104,-104,-88,-96,-132,-136,-128,-136,-124,-92,-80,-76,-60,-68
2026-03-17 15:24:41,-104,-112,-104,-124,-132,-120,-128,-132,-104,-88,-80,-24,80,208,380,584,764,912,1068,1212,1344,1496,1612,1644,1620,1564,1440,1252,1008,680,316,36,-148,-288,-364,-380,-388,-372,-320,-288,-280,-256,-228,-220,-200,-160,-140,-136,-112,-116,-148,-156,-148,-156,-148,-116,-108,-100,-80,-84,-120,-124,-112,-120,-112,-76,-64,-60,-40,-48,-80,-84,-76,-88,-76,-40,-28,-24,-4,-8,-40,-40,-28,-32,-20,4,12,20,44,44,16,12,28,24,40,76,88,100,128,128,104,108,128,128,152,200,224,240,276,284,268,280,304,308,328,368,384,396,424,424,396,392,400,388,396,428,432,432,448,432,388,368,364,340,332,344,332,316,320,296,244,216,200,176,172,184,172,160,164,140,92,76,68,48,52,76,76,72,88,76,36,24,24,8,16,48,56,60,80,76,44,36,40,28,36,64,68,68,88,80,48,40,48,36,48,84,92,96,120,112,76,72,76,64,72,104,112,112,132,124,92,84,84,68,76,104,112,112,132,124,88,76,80,68,72,100,104,100,120,108,72,64,68,52,60,92,92,92,104,92,60,56,64,48,60,92,92,88,104,92,56,48,52,36,44,68,68,68,84,76,40,36,44,32,44,76,80,84,104,96,60,56,60,44,52,84,88,88,108,104,72,72,84,80,96,132,136,136,156,148,120,124,140,136,148,180,188,184,196,176,128,112,112,100,104,128,128,124,136,116,72,52,48,32,36,64,68,68,84,76,40,32,36,24,36,68,72,72,92,84,48,36,24,-4,-16,0,8,28,88,148,208,332,492,656,840,1024,1156,1304,1488,1644,1752,1832,1840,1760,1644,1496,1252,932,592,264,12,-132,-224,-300,-320,-292,-260,-216,-156,-132,-136,-120,-104,-104,-80,-44,-32,-24,-4,-12,-44,-48,-48,-60,-48,-20,-12,-4,16,8,-24,-28,-24,-40,-28,0,8,12,36,32,0,0,0,-12,0,28,36,44,68,60,32,28,36,24,40,80,88,96,124,120,92,92,104,100,116,156,168,184,212,212,192,200,216,216,244,292,312,332,372,376,352,360,372,368,392,432,448,456,480,472,436,432,432,416,424,448,444,444,456,432,380,352,332,300,292,296,276,260,260,224,172,144,128,96,92,104,96,84,92,68,24,8,4,-8,-4,12,12,12,28,12,-20,-28,-28,-44,-40,-12,-4,0,12,0,-36,-44,-40,-52,-40,-8,-4,0,16,4
2026-03-17 15:24:42,-28,-32,-32,-48,-36,-4,0,0,20,8,-24,-32,-28,-40,-28,0,0,0,20,8,-24,-28,-24,-40,-32,-4,0,0,8,-4,-40,-44,-44,-56,-48,-24,-24,-24,-8,-24,-60,-64,-60,-72,-64,-36,-36,-36,-20,-40,-76,-84,-80,-92,-80,-52,-52,-48,-28,-44,-80,-88,-88,-104,-92,-64,-64,-64,-48,-64,-104,-108,-104,-116,-104,-76,-76,-76,-60,-76,-108,-116,-116,-128,-112,-80,-76,-72,-56,-68,-100,-108,-108,-120,-104,-64,-56,-44,-20,-28,-60,-60,-56,-68,-60,-32,-24,-12,12,4,-20,-20,-16,-28,-24,-8,-16,-24,-12,-32,-72,-80,-84,-104,-100,-76,-80,-84,-72,-100,-144,-152,-152,-168,-160,-128,-128,-124,-104,-120,-152,-156,-152,-164,-152,-120,-120,-124,-124,-160,-212,-220,-208,-196,-140,-44,56,192,372,524,656,800,940,1084,1272,1476,1620,1696,1704,1612,1452,1264,1004,660,324,56,-144,-280,-356,-424,-476,-468,-436,-408,-356,-296,-272,-256,-228,-236,-260,-256,-252,-260,-240,-208,-204,-200,-184,-196,-232,-236,-232,-240,-224,-192,-188,-188,-172,-188,-220,-224,-216,-220,-200,-168,-164,-160,-140,-156,-188,-188,-180,-184,-164,-128,-124,-120,-104,-120,-152,-148,-140,-148,-124,-88,-76,-68,-48,-64,-92,-88,-72,-72,-48,-8,0,12,40,36,16,28,48,52,84,128,144,160,188,180,156,160,172,172,192,232,236,240,260,244,208,204,200,188,196,216,204,192,192,156,100,80,68,40,40,52,36,16,12,-16,-68,-88,-96,-116,-112,-92,-100,-108,-100,-128,-172,-180,-184,-196,-184,-156,-156,-156,-144,-164,-200,-204,-204,-216,-204,-176,-176,-176,-160,-180,-216,-216,-208,-216,-200,-168,-164,-160,-144,-164,-196,-196,-192,-196,-180,-148,-140,-136,-120,-140,-176,-172,-168,-180,-168,-140,-140,-136,-124,-148,-184,-184,-180,-192,-172,-144,-148,-144,-132,-152,-188,-192,-188,-196,-184,-156,-160,-156,-144,-168,-204,-208,-204,-212,-196,-168,-168,-164,-148,-168,-204,-204,-196,-204,-184,-156,-156,-156,-140,-160,-192,-196,-196,-208,-192,-164,-164,-160,-144,-164,-196,-196,-192,-204,-188,-156,-156,-156,-140,-156,-188,-192,-188,-200,-180,-152,-152,-144,-128,-148,-180,-180,-180,-184,-160,-128,-120,-108,-88,-104,-136,-136,-132,-140,-116,-80,-76,-64,-40,-52,-84,-80,-80,-100,-92,-72,-80,-84,-72,-96,-136,-144,-148,-160,-152,-132,-136,-140,-132,-160,-196,-200,-196,-204,-184,-152,-152,-144,-124,-140,-172,-168,-164,-172,-152,-124,-132,-144,-148,-188,-224,-216,-184,-152,-76,40,176,340,528,676,796,932,1080,1236,1416,1572,1636,1632,1568,1424
