2026-03-12 18:36:40,4436,4744,5004,5116,5040,4808,4528,4300,4224,4328,4568,4856,5108,5228,5164,4948,4672,4460,4400,4520,4776,5076,5316,5416,5340,5128,4872,4672,4608,4724,4976,5268,5500,5584,5496,5280,5028,4824,4740,4820,5040,5300,5504,5576,5484,5252,4984,4772,4692,4776,4992,5244,5440,5508,5416,5208,4964,4760,4676,4752,4948,5188,5380,5452,5376,5180,4944,4756,4676,4748,4932,5148,5308,5352,5272,5084,4868,4692,4628,4708,4888,5076,5180,5228,5188,5024,4820,4656,4596,4672,4848,4980,4996,5016,5004,4868,4680,4524,4464,4524,4664,4752,4744,4744,4696,4516,4292,4108,4032,4096,4264,4396,4428,4460,4440,4296,4112,3968,3920,3996,4164,4260,4240,4244,4252,4164,4012,3872,3824,3896,4048,4112,4048,4032,4048,3980,3836,3712,3676,3760,3896,3924,3840,3816,3848,3808,3688,3584,3556,3636,3748,3744,3644,3612,3656,3644,3536,3432,3404,3492,3592,3564,3452,3412,3476,3496,3412,3328,3308,3392,3472,3408,3280,3228,3308,3352,3276,3196,3180,3264,3328,3244,3104,3052,3128,3176,3108,3020,2992,3076,3140,3064,2924,2876,2940,2964,2880,2788,2760,2828,2904,2856,2736,2700,2744,2732,2628,2520,2484,2552,2656,2648,2552,2528,2560,2520,2400,2292,2268,2348,2468,2480,2396,2376,2392,2324,2196,2084,2052,2128,2264,2308,2240,2228,2236,2156,2024,1908,1872,1948,2096,2152,2096,2092,2084,1968,1808,1692,1664,1744,1900,1976,1944,1960,2016,2036,2040,2092,2224,2384,2388,2212,2024,1952,2052,2300,2508,2508,2372,2228,2116,1988,1840,1668,1428,1168,952,824,820,940,1144,1336,1452,1516,1516,1428,1320,1252,1264,1372,1544,1612,1560,1568,1624,1620,1560,1520,1552,1672,1760,1688,1564,1532,1648,1752,1744,1720,1752,1868,1884,1716,1536,1476,1584,1736,1792,1796,1836,1912,1864,1664,1468,1400,1504,1648,1692,1684,1712,1788,1756,1564,1376,1312,1416,1528,1520,1476,1476,1552,1564,1420,1264,1212,1252,1232,1124,1012,956,988,1072,1100,1052,1004,896,700,488,312,220,228,296,364,380,308,144,-64,-284,-452,-540,-524,-440,-348,-304,-340,-464,-648,-832,-956,-996,-936,-812,-692,-616,-628,-728,-872,-1004,-1100,-1120,-1056,-936,-820,-748,-756,-848,-992,-1136,-1244,-1272,-1220,-1124,-1028,-980,-996,-1084,-1208,-1324,-1400,-1400,-1324,-1196,-1064,-972,-956,-1028,-1148,-1260,-1324,-1304,-1196,-1048,-900,-792,-748,-776,-840,-904,-928,-888,-768,-612,-460,-348,-300,-332,-408,-480,-516,-476,-368,-216,-72,20,40,-4,-80,-152,-188,-168,-84,28,148,224,224,152,52,-36,-92,-84,-16,76,160,208,196,116,4,-92,-156,-160,-92,8,108,160,144,64,-48,-152,-220,-236,-184,-96,-20,12,-12,-100,-224,-336,-408,-424,-368,-284,-212,-180,-204,-284,-388,-488,-552,-560,-504
2026-03-12 18:36:41,-432,-376,-356,-384,-468,-576,-672,-732,-744,-700,-628,-572,-548,-584,-680,-796,-900,-964,-964,-908,-840,-784,-760,-792,-876,-980,-1076,-1128,-1120,-1060,-984,-920,-896,-932,-1016,-1116,-1196,-1240,-1236,-1172,-1092,-1028,-1008,-1032,-1108,-1204,-1284,-1332,-1328,-1280,-1228,-1196,-1192,-1232,-1308,-1392,-1456,-1488,-1468,-1388,-1272,-1152,-1028,-920,-840,-776,-704,-576,-372,-120,112,280,332,232,-24,-384,-768,-1108,-1372,-1552,-1664,-1736,-1768,-1792,-1816,-1832,-1820,-1772,-1672,-1528,-1376,-1252,-1172,-1144,-1168,-1212,-1236,-1232,-1188,-1108,-1016,-940,-892,-884,-912,-960,-1004,-1020,-988,-916,-840,-792,-772,-800,-860,-928,-972,-992,-972,-916,-848,-804,-796,-832,-904,-984,-1048,-1088,-1096,-1064,-1024,-1008,-1020,-1068,-1140,-1220,-1284,-1316,-1316,-1280,-1240,-1220,-1228,-1268,-1340,-1412,-1460,-1480,-1460,-1408,-1352,-1316,-1312,-1340,-1396,-1456,-1504,-1532,-1516,-1464,-1412,-1380,-1376,-1408,-1468,-1528,-1572,-1592,-1572,-1520,-1464,-1432,-1432,-1468,-1524,-1580,-1612,-1620,-1592,-1532,-1472,-1428,-1416,-1444,-1504,-1560,-1596,-1600,-1568,-1504,-1436,-1388,-1368,-1384,-1436,-1492,-1528,-1532,-1496,-1432,-1372,-1336,-1332,-1360,-1404,-1452,-1484,-1488,-1460,-1412,-1364,-1336,-1328,-1348,-1400,-1444,-1464,-1456,-1428,-1372,-1320,-1284,-1272,-1288,-1328,-1360,-1380,-1376,-1340,-1272,-1208,-1172,-1164,-1188,-1236,-1280,-1296,-1292,-1256,-1192,-1136,-1100,-1092,-1116,-1152,-1180,-1188,-1172,-1128,-1052,-988,-952,-940,-960,-1004,-1044,-1060,-1048,-1008,-944,-884,-852,-848,-876,-920,-952,-960,-944,-904,-840,-792,-772,-776,-804,-848,-888,-904,-888,-844,-784,-724,-688,-684,-712,-760,-792,-808,-800,-768,-720,-672,-648,-648,-672,-720,-760,-772,-760,-724,-668,-624,-608,-620,-652,-696,-728,-740,-724,-688,-636,-588,-572,-592,-632,-684,-724,-744,-736,-700,-656,-628,-628,-656,-704,-756,-796,-820,-824,-796,-752,-724,-720,-736,-772,-816,-848,-860,-856,-832,-792,-768,-772,-800,-844,-896,-936,-956,-948,-920,-876,-852,-852,-868,-904,-948,-984,-1000,-1000,-976,-936,-908,-904,-916,-948,-1000,-1044,-1064,-1060,-1024,-968,-920,-896,-896,-908,-920,-900,-824,-692,-508,-316,-152,-4,136,268,368,436,456,404,268,48,-220,-500,-776,-1044,-1284,-1456,-1552,-1576,-1544,-1472,-1400,-1348,-1316,-1312,-1324,-1316,-1288,-1252,-1204,-1148,-1116,-1120,-1152,-1204,-1260,-1296,-1308,-1300,-1264,-1220,-1196,-1200,-1224,-1272,-1320,-1344,-1348,-1332,-1296,-1244,-1208,-1200,-1224,-1272,-1324,-1356,-1364,-1352,-1316,-1272,-1240,-1232,-1244,-1272,-1316,-1348,-1360,-1348,-1308,-1260,-1232,-1228,-1248,-1280,-1316,-1336,-1332,-1308,-1260,-1212,-1188,-1188,-1200,-1232,-1280,-1308,-1312,-1296,-1256,-1204,-1176,-1184,-1208,-1244,-1284,-1312,-1316,-1296,-1260,-1212,-1188,-1188,-1212,-1256,-1300,-1324,-1316,-1292,-1248,-1200,-1172,-1172,-1192,-1236,-1284,-1304,-1296,-1276,-1240,-1196
2026-03-12 18:36:42,-1172,-1168,-1180,-1208,-1236,-1252,-1248,-1224,-1180,-1120,-1084,-1080,-1092,-1120,-1160,-1180,-1176,-1152,-1112,-1068,-1040,-1040,-1056,-1084,-1120,-1144,-1140,-1112,-1072,-1024,-1000,-996,-1016,-1052,-1092,-1116,-1112,-1084,-1036,-988,-964,-964,-988,-1028,-1072,-1092,-1084,-1056,-1020,-972,-948,-956,-984,-1028,-1072,-1100,-1104,-1080,-1040,-992,-976,-992,-1024,-1072,-1128,-1160,-1164,-1140,-1100,-1052,-1028,-1036,-1060,-1092,-1132,-1160,-1164,-1148,-1116,-1076,-1048,-1048,-1068,-1108,-1148,-1164,-1160,-1136,-1096,-1048,-1024,-1036,-1076,-1132,-1176,-1200,-1192,-1164,-1120,-1068,-1036,-1032,-1048,-1080,-1104,-1104,-1076,-1028,-968,-908,-864,-852,-856,-872,-888,-888,-860,-812,-756,-700,-664,-652,-656,-672,-688,-688,-668,-636,-584,-516,-460,-424,-408,-392,-368,-320,-236,-140,-28,72,164,236,292,332,380,452,536,636,744,852,936,988,1016,1020,1020,1048,1096,1148,1196,1236,1248,1224,1180,1124,1052,972,900,832,760,668,540,392,236,96,-16,-92,-140,-200,-276,-360,-448,-540,-612,-648,-628,-544,-416,-272,-132,-20,64,144,244,380,580,852,1176,1504,1800,2068,2308,2516,2696,2848,2968,3032,3008,2880,2696,2492,2268,2048,1864,1728,1664,1688,1776,1892,1996,2088,2144,2172,2192,2220,2264,2332,2400,2448,2480,2496,2480,2436,2380,2336,2312,2308,2328,2352,2360,2344,2300,2236,2168,2100,2044,2020,2012,2004,1988,1956,1892,1804,1708,1620,1544,1500,1468,1444,1424,1396,1332,1244,1140,1024,920,848,808,776,740,692,620,524,416,304,220,164,132,100,60,12,-48,-124,-208,-296,-380,-432,-460,-480,-492,-516,-572,-660,-752,-836,-908,-952,-964,-972,-972,-984,-1020,-1084,-1164,-1252,-1324,-1368,-1388,-1400,-1408,-1424,-1460,-1520,-1592,-1660,-1712,-1744,-1756,-1756,-1756,-1760,-1792,-1836,-1896,-1960,-2012,-2040,-2040,-2028,-2008,-2004,-2024,-2068,-2132,-2200,-2264,-2300,-2308,-2308,-2308,-2312,-2344,-2400,-2472,-2544,-2604,-2636,-2640,-2628,-2608,-2604,-2628,-2668,-2724,-2780,-2824,-2832,-2816,-2796,-2768,-2748,-2752,-2780,-2820,-2864,-2900,-2908,-2896,-2868,-2824,-2788,-2784,-2816,-2860,-2908,-2940,-2944,-2932,-2916,-2884,-2864,-2864,-2892,-2924,-2964,-2992,-2996,-2984,-2960,-2932,-2912,-2924,-2948,-2984,-3020,-3048,-3052,-3032,-3004,-2968,-2948,-2948,-2968,-3004,-3044,-3072,-3076,-3060,-3036,-3000,-2972,-2972,-2992,-3020,-3052,-3076,-3080,-3064,-3032,-2988,-2952,-2944,-2960,-2988,-3016,-3032,-3020,-2988,-2948,-2904,-2872,-2868,-2888,-2916,-2948,-2972,-2964,-2940,-2908,-2872,-2836,-2824,-2832,-2852,-2880,-2908,-2912,-2896,-2864,-2824,-2792,-2788,-2808,-2832,-2864,-2892,-2892,-2872,-2832,-2788,-2752,-2744,-2756,-2784,-2820,-2844,-2840,-2828,-2804,-2768,-2740,-2736,-2752,-2776,-2812,-2844,-2856,-2840,-2808,-2768,-2736,-2724,-2736,-2760,-2792,-2816,-2816,-2796,-2760,-2712,-2668,-2652,-2652,-2668,-2688,-2704,-2700,-2676,-2632,-2576,-2528
2026-03-12 18:36:43,-2512,-2520,-2540,-2568,-2584,-2576,-2544,-2496,-2440,-2396,-2392,-2420,-2468,-2520,-2560,-2564,-2540,-2496,-2432,-2376,-2340,-2324,-2316,-2288,-2216,-2088,-1924,-1756,-1576,-1376,-1196,-1060,-968,-956,-1028,-1176,-1400,-1648,-1872,-2084,-2296,-2500,-2680,-2828,-2916,-2936,-2900,-2840,-2760,-2696,-2660,-2648,-2644,-2648,-2644,-2620,-2580,-2536,-2488,-2448,-2444,-2464,-2492,-2528,-2556,-2560,-2544,-2508,-2464,-2420,-2408,-2416,-2444,-2480,-2512,-2516,-2504,-2476,-2440,-2404,-2396,-2408,-2432,-2464,-2492,-2492,-2460,-2416,-2368,-2332,-2328,-2352,-2388,-2428,-2460,-2456,-2428,-2384,-2340,-2296,-2280,-2288,-2312,-2348,-2372,-2372,-2348,-2308,-2252,-2200,-2176,-2180,-2204,-2232,-2244,-2232,-2196,-2148,-2100,-2072,-2068,-2084,-2100,-2124,-2144,-2144,-2120,-2084,-2040,-2004,-1992,-2004,-2032,-2068,-2092,-2092,-2072,-2040,-1992,-1948,-1916,-1916,-1940,-1976,-2008,-2012,-1992,-1952,-1896,-1840,-1796,-1776,-1784,-1812,-1836,-1836,-1808,-1768,-1720,-1684,-1676,-1692,-1716,-1752,-1776,-1776,-1752,-1720,-1676,-1640,-1628,-1636,-1660,-1688,-1708,-1712,-1692,-1664,-1620,-1580,-1564,-1580,-1604,-1632,-1648,-1636,-1604,-1564,-1512,-1472,-1456,-1468,-1496,-1544,-1572,-1572,-1548,-1500,-1436,-1388,-1368,-1368,-1384,-1424,-1456,-1452,-1424,-1384,-1340,-1308,-1300,-1308,-1320,-1336,-1344,-1332,-1292,-1240,-1180,-1140,-1132,-1144,-1168,-1196,-1216,-1204,-1164,-1116,-1064,-1016,-996,-992,-1008,-1032,-1052,-1048,-1028,-1000,-952,-912,-900,-908,-920,-940,-960,-964,-948,-916,-872,-832,-824,-840,-876,-916,-948,-952,-936,-904,-864,-840,-848,-876,-916,-964,-1000,-1012,-1012,-1000,-976,-956,-964,-1000,-1044,-1092,-1124,-1128,-1108,-1088,-1060,-1044,-1060,-1100,-1148,-1200,-1244,-1264,-1256,-1240,-1216,-1200,-1212,-1252,-1304,-1360,-1404,-1428,-1428,-1412,-1388,-1380,-1404,-1452,-1512,-1568,-1620,-1656,-1660,-1644,-1620,-1600,-1604,-1632,-1676,-1720,-1764,-1776,-1764,-1732,-1700,-1676,-1684,-1716,-1756,-1800,-1836,-1844,-1832,-1808,-1776,-1748,-1752,-1776,-1808,-1844,-1876,-1880,-1864,-1832,-1800,-1772,-1772,-1800,-1852,-1912,-1948,-1940,-1900,-1840,-1784,-1744,-1732,-1732,-1732,-1712,-1648,-1520,-1348,-1172,-992,-804,-632,-492,-400,-380,-432,-552,-740,-952,-1156,-1344,-1528,-1704,-1860,-1984,-2056,-2064,-2020,-1952,-1868,-1792,-1744,-1712,-1692,-1684,-1668,-1632,-1576,-1520,-1460,-1416,-1396,-1404,-1420,-1436,-1444,-1424,-1396,-1356,-1304,-1260,-1236,-1244,-1264,-1288,-1296,-1276,-1236,-1180,-1128,-1088,-1076,-1084,-1100,-1120,-1136,-1128,-1092,-1044,-996,-960,-948,-956,-984,-1012,-1024,-1012,-968,-920,-868,-828,-808,-812,-828,-852,-872,-868,-832,-784,-732,-692,-680,-692,-716,-744,-764,-752,-712,-664,-608,-560,-540,-548,-572,-612,-640,-636,-608,-568,-528,-500,-504,-536,-576,-620,-652,-652,-624,-584,-540,-512,-504,-524,-560,-600,-628,-624,-592,-552,-508,-476,-468,-484,-508,-544,-568,-564,-540,-504,-460,-424,-408,-412,-428,-448,-460,-436,-388,-328,-264,-212
2026-03-12 18:36:44,-188,-188,-196,-216,-224,-204,-164,-112,-64,-32,-24,-36,-56,-84,-100,-84,-44,0,44,80,88,72,48,16,0,4,32,72,116,148,152,136,108,76,60,68,92,124,160,188,192,180,156,136,124,132,156,184,216,236,236,220,192,160,140,144,168,208,252,284,288,272,244,208,184,184,200,236,276,308,312,296,264,232,208,204,216,240,268,284,276,260,240,216,204,216,240,284,328,360,364,344,316,276,252,260,284,320,360,388,392,376,344,308,288,300,328,360,400,428,432,420,404,384,376,392,424,460,504,528,528,508,480,456,440,448,464,480,504,520,512,480,444,404,368,356,368,400,440,460,436,388,332,276,232,224,232,256,292,304,284,248,204,152,112,104,116,128,136,128,92,48,4,-40,-80,-100,-104,-100,-92,-96,-124,-160,-188,-204,-200,-168,-116,-56,4,68,128,196,284,396,512,640,796,976,1160,1308,1376,1352,1232,1020,760,512,308,144,16,-104,-224,-316,-376,-400,-384,-336,-268,-188,-108,-40,0,24,32,24,16,28,52,84,124,148,148,136,112,80,64,76,100,140,192,232,240,224,208,188,184,200,232,272,316,344,340,316,284,252,236,240,256,284,320,340,336,320,296,264,240,240,264,292,328,352,352,340,316,284,260,256,280,312,348,372,360,324,276,208,136,92,80,92,116,132,120,96,72,52,52,72,116,168,228,276,312,336,348,356,380,428,512,620,748,864,944,1004,1048,1080,1124,1188,1268,1372,1488,1604,1696,1764,1816,1864,1920,2008,2128,2268,2428,2592,2736,2864,2976,3080,3192,3328,3488,3668,3864,4052,4216,4356,4476,4580,4676,4788,4920,5084,5272,5448,5592,5688,5748,5788,5844,5932,6040,6164,6308,6436,6532,6596,6632,6652,6676,6720,6788,6864,6956,7044,7104,7132,7132,7108,7084,7080,7100,7148,7216,7280,7308,7312,7288,7240,7188,7164,7168,7200,7252,7296,7320,7316,7280,7220,7156,7116,7100,7116,7160,7204,7224,7208,7156,7088,7024,6984,6964,6976,7012,7044,7044,7004,6944,6868,6792,6740,6708,6700,6720,6736,6728,6696,6636,6548,6464,6404,6372,6368,6384,6384,6364,6324,6252,6160,6076,6020,5988,5968,5976,5984,5964,5916,5852,5780,5708,5644,5592,5568,5568,5556,5520,5456,5360,5228,5092,4980,4908,4888,4916,4984,5088,5232,5456,5772,6168,6596,7024,7336,7336,7048,6640,6296,6156,6268,6584,6968,7260,7340,7160,6780,6332,5972,5820,5920,6216,6584,6864,6940,6768,6404,5972,5624,5480,5576,5752,6044,6392,6512,6372,6032,5624,5296,5160,5256,5532,5876,6136,6208,6052,5712
2026-03-12 18:36:45,5316,4992,4860,4952,5220,5548,5800,5872,5720,5396,5012,4700,4572,4664,4924,5240,5484,5552,5408,5096,4724,4428,4304,4392,4640,4948,5184,5248,5112,4812,4456,4172,4052,4136,4380,4672,4900,4964,4832,4544,4204,3928,3816,3896,4128,4412,4636,4696,4568,4292,3964,3704,3596,3672,3896,4172,4384,4440,4316,4052,3736,3484,3380,3456,3672,3936,4140,4200,4084,3828,3528,3284,3184,3252,3460,3716,3916,3972,3860,3616,3324,3092,2996,3064,3268,3512,3704,3760,3652,3416,3136,2912,2820,2888,3080,3320,3504,3556,3452,3224,2956,2740,2652,2716,2904,3132,3312,3364,3264,3048,2788,2580,2496,2556,2740,2960,3132,3180,3088,2876,2628,2428,2344,2408,2580,2796,2960,3008,2916,2716,2476,2284,2208,2268,2436,2640,2800,2848,2760,2564,2336,2152,2076,2132,2296,2496,2648,2692,2608,2424,2204,2024,1952,2008,2164,2356,2504,2548,2468,2288,2076,1904,1836,1892,2016,2056,2012,2072,2132,2052,1896,1760,1708,1772,1756,1576,1416,1416,1588,1704,1656,1580,1568,1520,1304,1012,796,756,920,1172,1324,1356,1332,1140,788,424,180,136,308,608,900,1080,1072,868,556,256,68,68,248,516,756,868,772,468,48,-360,-656,-760,-656,-424,-180,-24,-32,-204,-476,-732,-872,-828,-604,-292,-4,156,128,-84,-412,-732,-944,-988,-856,-620,-396,-284,-348,-596,-932,-1252,-1468,-1516,-1400,-1184,-968,-844,-880,-1064,-1336,-1592,-1760,-1768,-1624,-1400,-1200,-1100,-1156,-1380,-1688,-1980,-2168,-2188,-2060,-1856,-1664,-1568,-1616,-1812,-2088,-2348,-2528,-2572,-2476,-2312,-2160,-2100,-2188,-2416,-2712,-2988,-3172,-3220,-3128,-2956,-2792,-2704,-2740,-2896,-3108,-3296,-3404,-3384,-3228,-2996,-2764,-2600,-2556,-2640,-2784,-2908,-2952,-2856,-2608,-2260,-1896,-1616,-1476,-1464,-1492,-1496,-1452,-1336,-1180,-1060,-1068,-1256,-1608,-2072,-2564,-3008,-3336,-3492,-3480,-3352,-3196,-3084,-3080,-3184,-3336,-3472,-3536,-3488,-3340,-3152,-2988,-2896,-2920,-3056,-3240,-3416,-3528,-3540,-3452,-3312,-3192,-3136,-3180,-3320,-3508,-3676,-3776,-3784,-3696,-3560,-3428,-3364,-3400,-3528,-3684,-3820,-3892,-3876,-3764,-3612,-3476,-3400,-3424,-3540,-3692,-3824,-3896,-3880,-3776,-3632,-3500,-3424,-3444,-3552,-3700,-3828,-3904,-3892,-3800,-3676,-3564,-3504,-3540,-3664,-3820,-3956,-4036,-4032,-3956,-3840,-3740,-3696,-3732,-3844,-3992,-4120,-4192,-4188,-4108,-3996,-3904,-3864,-3904,-4016,-4152,-4276,-4356,-4360,-4280,-4176,-4092,-4060,-4108,-4228,-4372,-4500,-4584,-4588,-4516,-4408,-4316,-4268,-4300,-4396,-4520,-4628,-4688,-4676,-4588,-4464,-4360,-4312,-4344,-4452,-4584,-4704,-4780,-4792,-4736,-4652,-4584,-4560,-4592,-4684,-4800,-4900,-4960,-4952,-4884,-4792,-4720,-4692,-4724,-4816,-4928,-5024,-5080,-5064,-4988,-4888,-4812,-4776,-4800,-4892,-5000,-5084,-5112,-5072,-4988,-4896,-4832,-4808,-4832,-4892,-4964,-5020,-5048,-5020,-4936,-4844,-4780,-4756,-4780,-4840,-4916,-4984,-5020,-4996,-4912,-4816
2026-03-12 18:36:46,-4740,-4696,-4704,-4768,-4848,-4916,-4948,-4912,-4816,-4708,-4624,-4576,-4576,-4624,-4692,-4748,-4780,-4756,-4672,-4572,-4484,-4440,-4456,-4520,-4588,-4628,-4624,-4560,-4464,-4372,-4300,-4260,-4272,-4324,-4388,-4432,-4432,-4388,-4300,-4204,-4128,-4088,-4096,-4140,-4184,-4212,-4208,-4160,-4080,-4000,-3936,-3900,-3908,-3960,-4012,-4040,-4032,-3988,-3912,-3832,-3768,-3732,-3744,-3792,-3844,-3872,-3868,-3824,-3756,-3680,-3624,-3596,-3616,-3668,-3716,-3744,-3748,-3708,-3640,-3564,-3508,-3476,-3480,-3516,-3552,-3572,-3572,-3544,-3492,-3436,-3388,-3360,-3376,-3428,-3476,-3496,-3496,-3456,-3392,-3328,-3280,-3264,-3288,-3336,-3384,-3408,-3408,-3376,-3320,-3264,-3228,-3228,-3272,-3348,-3424,-3468,-3476,-3440,-3372,-3312,-3268,-3248,-3256,-3276,-3264,-3200,-3072,-2900,-2720,-2548,-2372,-2212,-2088,-2016,-2000,-2052,-2184,-2380,-2600,-2820,-3028,-3228,-3420,-3604,-3740,-3804,-3800,-3736,-3640,-3544,-3460,-3400,-3364,-3340,-3308,-3256,-3196,-3124,-3044,-2972,-2928,-2908,-2912,-2940,-2956,-2940,-2896,-2836,-2760,-2692,-2648,-2628,-2636,-2656,-2660,-2648,-2620,-2568,-2508,-2456,-2420,-2412,-2424,-2456,-2476,-2468,-2440,-2392,-2336,-2292,-2272,-2276,-2300,-2336,-2356,-2352,-2328,-2284,-2232,-2192,-2172,-2172,-2196,-2232,-2260,-2264,-2240,-2188,-2128,-2080,-2060,-2064,-2088,-2116,-2124,-2112,-2080,-2036,-1984,-1936,-1908,-1908,-1924,-1944,-1944,-1916,-1876,-1820,-1764,-1728,-1728,-1740,-1768,-1796,-1804,-1784,-1744,-1692,-1640,-1612,-1604,-1608,-1624,-1644,-1648,-1624,-1596,-1568,-1528,-1496,-1480,-1484,-1508,-1548,-1576,-1576,-1560,-1532,-1500,-1476,-1476,-1488,-1524,-1564,-1588,-1584,-1564,-1536,-1504,-1492,-1500,-1520,-1556,-1596,-1604,-1584,-1548,-1512,-1480,-1468,-1480,-1500,-1524,-1552,-1556,-1536,-1500,-1456,-1416,-1392,-1392,-1408,-1428,-1452,-1452,-1424,-1384,-1348,-1316,-1304,-1312,-1336,-1364,-1384,-1384,-1360,-1324,-1284,-1260,-1260,-1284,-1316,-1348,-1376,-1372,-1336,-1296,-1252,-1224,-1212,-1220,-1244,-1280,-1304,-1300,-1272,-1240,-1208,-1180,-1172,-1188,-1212,-1232,-1244,-1228,-1188,-1148,-1112,-1080,-1072,-1088,-1116,-1140,-1152,-1132,-1088,-1040,-992,-956,-944,-956,-980,-1004,-1020,-1008,-972,-932,-896,-872,-872,-896,-932,-968,-996,-1004,-992,-980,-972,-988,-1028,-1080,-1120,-1152,-1176,-1168,-1140,-1100,-1064,-1040,-1044,-1064,-1092,-1116,-1132,-1116,-1068,-1016,-960,-912,-892,-900,-920,-940,-944,-916,-864,-808,-760,-720,-716,-736,-756,-772,-776,-756,-712,-664,-624,-600,-608,-636,-672,-708,-728,-720,-684,-640,-608,-592,-612,-656,-700,-736,-756,-744,-712,-676,-656,-656,-692,-752,-812,-852,-856,-820,-756,-692,-636,-588,-564,-552,-508,-420,-296,-144,20,192,360,496,580,592,528,396,208,16,-136,-260,-368,-480,-604,-736,-852,-932,-960,-928,-848,-752,-664,-600,-564,-548,-528,-508,-476,-420,-352,-284,-228,-204,-220,-252,-292,-324,-336,-308,-252,-188,-136,-104,-112,-156,-208,-248,-260,-232,-176,-112,-60,-32,-44
2026-03-12 18:38:37,532,512,500,512,536,572,616,648,652,640,616,592,580,592,628,680,736,776,792,776,732,684,652,648,672,716,760,788,800,796,780,760,756,772,800,836,868,892,896,876,844,816,808,820,844,876,896,904,896,884,860,840,840,864,904,956,1008,1036,1044,1024,992,964,952,952,968,1004,1048,1084,1100,1092,1076,1052,1044,1064,1104,1152,1196,1208,1200,1168,1124,1092,1080,1084,1096,1120,1144,1160,1160,1140,1108,1092,1096,1124,1164,1204,1240,1256,1256,1236,1208,1188,1176,1180,1212,1264,1308,1328,1320,1292,1252,1220,1208,1216,1236,1260,1288,1304,1308,1296,1272,1236,1212,1200,1200,1204,1208,1204,1196,1172,1140,1108,1100,1104,1124,1148,1172,1180,1168,1136,1104,1080,1072,1080,1104,1140,1180,1212,1220,1200,1160,1120,1096,1096,1112,1144,1172,1188,1192,1176,1144,1120,1112,1124,1144,1172,1192,1204,1204,1188,1168,1144,1128,1124,1132,1156,1184,1208,1224,1240,1272,1344,1456,1596,1740,1876,2016,2164,2304,2408,2452,2452,2396,2264,2056,1812,1552,1292,1048,836,672,576,544,552,600,664,724,772,804,828,852,888,944,996,1048,1088,1120,1136,1132,1120,1104,1096,1100,1108,1128,1148,1160,1164,1156,1140,1120,1112,1120,1140,1168,1200,1224,1248,1252,1232,1196,1152,1128,1120,1128,1148,1168,1176,1176,1164,1148,1132,1132,1144,1160,1180,1192,1196,1192,1180,1168,1164,1164,1176,1188,1196,1208,1212,1212,1204,1192,1188,1192,1196,1204,1228,1240,1236,1220,1192,1156,1116,1092,1088,1100,1112,1116,1116,1104,1084,1056,1024,1012,1016,1028,1044,1056,1052,1036,1008,984,960,956,968,984,1000,1008,1008,1004,996,984,984,988,992,996,996,992,984,972,960,944,932,936,944,956,972,988,992,984,964,936,920,916,912,912,912,908,900,892,880,876,880,892,908,916,916,896,868,840,824,816,816,824,836,848,856,856,852,844,836,824,816,816,824,844,864,876,880,876,876,872,872,876,884,896,916,920,912,900,888,892,904,920,924,912,900,884,868,844,828,816,812,812,820,824,828,824,812,796,776,760,752,764,784,808,828,836,832,820,808,796,792,800,816,828,840,848,852,844,840,824,816,816,820,828,836,840,840,832,824,824,832,840,836,824,800,780,760,744,736,724,712,712,712,708,704,700,684,660,632,604,584,576,584,600,616,624,624,612,596,588,588,600,608,616,616,608,592,572,552,536,532,540,548,560,572,572,568,560,548,536,528,540,556,568,572,568,544,520,504,500,508,528,560,592,628,668,716,788,896
2026-03-12 18:38:38,1032,1164,1288,1416,1568,1720,1844,1916,1924,1864,1704,1468,1196,920,672,460,292,160,64,4,-12,0,36,96,160,212,252,288,320,352,380,408,436,464,488,516,532,532,524,508,500,504,520,544,568,584,600,604,592,580,572,572,580,596,612,624,624,616,612,608,604,612,628,640,648,652,652,640,620,604,588,584,596,620,644,660,660,652,636,620,608,612,628,652,676,692,696,696,688,680,680,684,700,716,728,740,752,756,744,728,708,692,676,672,672,680,684,680,668,648,628,612,604,604,608,616,612,596,576,564,556,556,560,560,560,560,560,548,536,528,524,532,548,560,568,576,572,560,548,536,528,520,512,504,496,496,488,468,440,416,400,396,400,412,424,428,424,416,408,400,396,400,408,416,428,436,440,436,432,424,416,408,404,400,392,392,388,388,384,380,376,380,384,376,368,360,352,344,332,324,320,324,336,344,352,352,348,336,320,312,308,312,320,328,336,340,344,340,332,324,312,300,292,284,280,284,284,284,284,276,260,248,236,224,220,212,200,188,180,184,188,200,216,228,236,240,232,228,228,232,240,252,268,280,284,284,280,272,264,256,248,244,252,264,276,280,272,260,252,244,244,252,264,276,280,272,252,228,212,208,216,224,236,240,236,220,204,184,176,172,172,172,168,164,156,152,148,144,136,136,132,136,140,148,160,168,164,148,132,116,112,116,128,136,136,140,144,144,140,140,140,148,156,160,168,176,176,160,144,128,124,128,152,176,196,212,224,236,268,324,420,552,696,824,944,1088,1244,1384,1484,1532,1516,1412,1216,948,668,396,144,-76,-252,-380,-452,-460,-424,-368,-308,-248,-192,-144,-100,-60,-24,8,44,80,112,132,136,128,116,104,100,100,108,116,124,136,144,144,140,132,124,124,128,132,144,156,156,148,140,132,132,132,140,148,156,160,160,160,164,160,160,160,164,168,180,188,192,192,196,196,196,196,200,204,216,232,240,248,252,256,260,268,280,288,300,308,312,304,296,288,272,264,268,272,276,268,244,208,176,148,128,116,108,104,100,100,96,88,72,64,60,60,60,64,64,72,76,84,84,84,84,84,88,92,96,100,100,104,108,108,108,104,92,76,64,64,60,52,40,28,20,24,36,44,52,60,64,60,48,44,36,40,48,60,68,72,72,68,60,56
2026-03-12 18:38:39,56,64,76,92,104,108,104,100,96,96,84,72,64,64,64,60,60,60,64,68,80,92,104,116,124,128,124,120,116,112,116,124,128,128,128,132,136,136,132,124,112,108,116,120,112,100,88,76,68,68,68,72,80,80,76,72,60,48,44,40,40,44,52,60,68,68,64,60,60,60,68,76,80,76,76,76,72,64,68,68,72,76,80,88,96,100,92,76,64,60,60,76,92,104,104,104,100,100,100,104,104,108,112,116,116,112,104,100,96,80,60,44,28,12,-4,-20,-36,-44,-48,-52,-60,-60,-52,-44,-36,-36,-44,-56,-64,-68,-72,-64,-56,-48,-44,-36,-28,-24,-24,-28,-36,-32,-28,-24,-20,-24,-28,-28,-20,-8,0,8,12,20,20,16,4,0,0,0,8,24,44,60,92,132,184,252,348,476,612,740,880,1036,1196,1328,1416,1456,1432,1316,1112,856,580,316,72,-144,-324,-448,-504,-508,-468,-408,-332,-260,-204,-156,-124,-96,-68,-40,-16,8,44,76,104,120,124,124,132,144,160,176,188,192,200,204,196,184,184,180,176,180,192,204,212,216,216,212,208,208,212,224,236,256,276,292,292,292,292,292,296,312,332,352,368,384,388,392,392,388,392,408,432,448,460,468,468,460,456,456,456,460,464,464,468,472,468,468,472,468,472,484,500,508,508,508,500,492,488,484,480,480,476,472,468,472,464,456,448,444,444,444,448,452,452,452,440,432,432,432,428,428,432,436,436,444,444,440,444,444,448,452,452,452,452,448,432,420,408,400,396,400,412,424,436,440,436,420,408,404,408,416,424,428,432,428,416,404,396,392,392,404,416,428,436,432,424,412,408,408,404,404,404,404,400,392,392,392,400,408,416,432,440,452,464,480,484,484,472,460,448,444,444,444,448,452,456,468,476,472,460,452,448,440,436,436,436,432,424,416,412,412,412,408,408,408,412,416,420,416,404,404,404,408,412,416,416,408,404,400,404,412,424,428,432,432,432,428,424,424,420,420,420,420,424,420,404,400,400,404,408,420,432,436,436,428,416,416,416,416,424,444,464,472,476,472,468,468,472,476,472,464,464,468,472,468,460,452,440,432,428,428,428,416,404,396,384,372,360,348,336,328,324,328,336,332,320,304,292,284,276,276,280,284,288,288,284,276,272,268,268,276,292,304,312,316,312,308,300,300
2026-03-12 18:38:40,304,312,316,312,296,272,244,216,200,196,204,220,236,260,288,324,376,456,572,700,824,952,1096,1256,1416,1540,1608,1592,1488,1296,1048,788,540,304,92,-80,-212,-288,-308,-288,-240,-180,-112,-52,0,52,100,144,180,208,236,268,292,308,320,324,320,312,304,304,316,332,352,372,380,384,376,368,364,360,360,368,380,384,384,372,360,344,336,340,352,368,384,392,396,396,392,388,388,396,408,420,436,444,452,456,448,440,436,432,440,452,460,468,472,484,488,484,484,488,500,516,532,540,540,536,524,512,500,496,500,504,504,496,488,480,468,456,448,440,440,448,460,472,484,496,496,492,484,472,460,464,468,476,484,488,484,480,472,468,472,484,492,492,488,476,460,452,448,444,444,448,456,460,464,464,456,436,420,404,392,388,388,392,396,400,408,416,424,428,428,436,440,440,440,432,420,408,408,412,424,436,448,452,444,432,420,416,416,416,416,412,412,420,428,436,440,440,440,440,444,452,460,460,468,472,476,484,488,492,500,512,516,516,516,520,520,516,508,500,484,472,464,464,472,476,476,480,488,488,484,480,484,488,488,488,480,472,468,464,464,468,480,496,508,512,508,500,496,492,484,488,492,496,496,488,476,464,460,464,476,496,516,532,544,544,532,524,520,512,512,516,516,512,512,520,528,540,544,540,532,528,520,516,520,520,516,512,508,500,496,500,508,512,512,508,496,484,472,464,456,448,444,444,440,424,408,392,388,388,392,404,412,420,424,420,408,400,380,364,360,364,364,352,336,316,304,304,308,304,304,308,312,308,304,296,292,280,272,264,264,264,260,256,256,260,272,280,288,288,288,296,320,368,444,552,676,792,896,1012,1152,1292,1412,1480,1476,1384,1212,984,740,504,276,72,-100,-240,-328,-372,-372,-336,-280,-224,-168,-116,-68,-28,16,64,100,128,156,180,200,216,220,220,220,216,212,216,224,236,244,252,260,260,256,256,260,264,276,284,292,300,308,312,312,304,292,284,284,276,268,272,276,280,280,276,264,256,248,252,264,280,296,304,312,316,320,320,320,320,324,336,340,340,340,340,336,332,336,340,352,368,380,388,400,412,416,416,416,408,400,396,392,384,376,372,364,344,324,312,304,308,308,300,296,296,292,288,288,292,292,296,304,308,308,308,296,288,288,288
2026-03-12 18:38:41,288,288,292,288,288,280,272,264,256,252,248,252,252,256,252,240,212,184,160,140,132,136,136,136,132,124,120,120,132,144,160,172,180,184,192,204,208,208,208,196,184,180,180,180,180,180,172,168,168,176,176,168,164,164,164,164,164,164,164,168,176,188,200,208,208,208,204,200,200,200,200,208,220,236,252,260,256,252,252,244,240,244,244,240,240,240,240,240,236,224,216,216,220,216,212,208,204,200,196,192,192,204,212,212,204,192,176,164,156,156,164,180,192,200,200,196,188,184,180,176,176,176,168,156,156,156,160,160,156,156,160,172,184,192,192,192,196,200,204,212,220,232,240,244,236,232,224,220,220,216,208,204,192,184,176,168,152,140,128,112,104,104,104,108,108,104,92,84,76,68,68,80,88,92,88,84,80,76,76,72,80,92,100,104,112,116,112,104,100,100,108,120,128,136,140,132,108,80,64,64,72,88,100,108,112,124,156,212,304,436,576,704,820,948,1096,1232,1336,1388,1372,1272,1096,864,612,368,132,-88,-280,-424,-516,-552,-536,-488,-424,-364,-304,-252,-204,-156,-108,-68,-24,8,36,56,68,72,56,40,32,32,40,56,76,92,112,128,132,132,128,116,112,124,140,160,180,196,200,196,192,192,196,200,208,216,216,216,208,200,196,196,200,208,220,232,244,248,248,244,244,240,244,252,260,264,260,260,260,264,272,280,284,288,288,292,296,296,292,288,284,280,276,280,280,272,260,248,232,220,212,208,208,212,216,220,220,216,204,192,180,176,176,188,196,196,200,200,196,192,196,196,204,212,220,224,224,224,216,200,180,160,152,156,164,168,168,160,148,136,124,112,104,108,112,116,116,116,112,108,112,120,132,148,156,156,152,144,140,132,128,120,120,124,140,156,172,180,184,184,172,156,144,144,148,156,164,172,176,176,172,164,160,160,164,164,168,164,156,156,172,184,196,208,212,200,188,172,156,152,164,180,196,212,220,228,232,232,212,188,168,156,144,140,132,132,128,124,124,124,120,116,116,120,124,124,120,116,108,108,116,120,128,136,144,148,152,152,156,152,152,156,164,168,172,172,172,160,144,128,108,96,96,104,112,116,120,120,120,124,128,136,144,148,152,156,156,152,152,148,148,144,140,136,132,124,116,108,104,96,88,76
2026-03-12 18:38:42,64,60,56,48,36,24,8,0,-4,-8,-4,4,12,20,32,40,40,40,40,36,36,36,32,36,48,52,52,56,56,56,56,64,68,72,64,52,40,32,32,40,56,76,84,88,96,116,156,236,352,480,608,728,868,1024,1180,1296,1356,1352,1276,1116,892,648,400,160,-60,-248,-392,-480,-520,-516,-472,-412,-352,-296,-240,-196,-156,-116,-80,-52,-20,4,24,40,48,52,52,44,36,36,52,76,96,108,116,108,92,80,72,72,84,108,136,160,176,184,180,184,188,188,196,204,216,224,228,228,216,196,192,196,204,212,224,236,248,256,256,252,248,248,256,268,284,296,308,312,316,316,316,320,324,328,336,344,348,348,344,340,332,328,324,320,308,300,292,284,272,256,240,232,228,232,232,232,232,232,228,216,204,192,192,196,204,208,208,200,196,196,196,200,204,216,224,236,240,236,228,220,208,204,200,200,192,192,192,192,192,188,172,144,116,96,84,80,76,72,68,68,72,76,80,84,84,84,80,72,64,64,68,80,92,112,120,128,132,132,116,104,100,100,112,128,140,140,148,152,148,128,108,96,96,108,116,124,132,132,128,124,124,120,124,124,124,128,132,132,124,120,120,124,132,140,140,140,140,136,132,128,132,132,136,140,144,140,136,132,132,132,128,112,104,108,112,116,120,120,120,124,128,132,136,144,156,168,180,184,180,180,180,188,204,220,228,224,224,216,212,208,208,204,204,208,216,228,244,248,240,224,208,192,184,180,180,172,160,140,116,100,92,88,92,96,92,80,72,64,60,60,60,60,56,52,52,60,68,68,60,48,32,24,24,24,24,24,24,24,16,20,28,32,40,48,56,56,56,52,44,40,36,36,32,32,36,48,56,68,84,100,120,148,196,280,392,520,648,752,852,980,1128,1264,1372,1432,1432,1348,1164,924,664,400,156,-56,-232,-360,-440,-468,-452,-412,-352,-284,-220,-168,-120,-84,-52,-20,0,24,40,60,76,96,112,128,136,136,132,132,132,136,144,148,148,156,168,172,176,180,180,180,184,184,192,204,220,240,252,252,248,244,240,232,224,216,208,208,212,224,244,256,260,260,268,276,276,280,284,288,296,296,292,296,300,308,316,328,340,348,352,360,368,368,372,380,392,396,400,396,388,380,376,376,380,380,372,356,344,332,320,312,312,316
2026-03-12 18:38:43,320,324,320,316,308,300,292,284,284,284,284,284,284,288,288,284,280,276,272,264,260,256,256,252,244,232,220,208,200,192,188,180,172,160,152,140,132,132,136,140,144,144,140,136,140,140,140,140,140,140,140,140,140,144,152,156,156,148,136,128,136,144,144,136,124,112,104,96,84,76,76,80,84,84,76,68,60,48,32,24,24,32,32,40,44,44,40,44,40,36,40,44,48,48,48,56,56,56,48,36,32,36,40,32,20,0,-12,-16,-16,-12,-8,-4,-4,-12,-16,-24,-28,-32,-32,-28,-20,-16,-8,-4,0,0,0,4,4,4,8,16,24,28,20,8,4,0,0,0,0,12,24,32,28,28,24,20,12,12,24,40,48,48,48,44,36,32,32,44,52,64,72,80,80,80,76,68,60,48,44,40,40,36,28,16,4,-4,-12,-24,-32,-40,-52,-56,-56,-52,-52,-48,-48,-60,-68,-76,-80,-84,-84,-88,-84,-76,-64,-60,-52,-36,-24,-12,0,0,-4,-24,-40,-48,-44,-32,-24,-16,-8,-4,-16,-36,-60,-72,-68,-52,-28,-12,-4,4,28,76,148,240,360,496,620,752,904,1060,1200,1308,1364,1344,1240,1044,788,520,264,16,-196,-364,-472,-516,-512,-472,-412,-352,-296,-248,-208,-168,-132,-100,-72,-36,0,28,56,64,60,56,52,52,56,64,72,88,104,112,108,100,96,96,108,124,140,156,168,172,164,152,140,132,140,156,176,196,208,220,228,224,220,208,200,200,204,204,208,204,204,208,216,220,228,228,224,220,216,216,216,220,228,236,244,252,260,264,268,268,268,264,264,268,272,280,280,280,276,276,268,256,240,228,224,224,232,248,252,244,232,224,220,224,240,256,264,264,260,256,252,248,244,236,236,244,252,256,260,260,260,260,260,260,260,264,264,260,252,240,228,208,196,188,188,188,188,188,184,172,164,160,156,148,144,144,148,148,148,144,136,128,120,112,120,132,144,156,160,160,156,152,148,148,144,144,140,136,136,136,144,152,156,156,160,168,172,176,180,180,176,168,156,148,144,148,148,148,148,144,140,144,148,148,156,164,168,168,168,156,144,128,112,100,100,104,108,112,112,112,108,108,112,120,132,140,144,144,132,108,88,76,72,68,64,64,64,72,76,84,96,104,108,108,120,128,132,140,144,140,140,140,148,160,168,172,168,164,160,148,136,132,128,120
2026-03-12 18:38:44,120,124,128,136,144,152,152,144,136,128,120,120,120,120,116,108,96,88,80,72,64,56,44,32,20,4,0,0,0,0,0,0,-4,-12,-16,-20,-24,-32,-44,-52,-56,-60,-68,-72,-72,-76,-76,-76,-80,-84,-76,-68,-64,-64,-72,-84,-96,-100,-104,-108,-108,-108,-112,-116,-120,-120,-108,-96,-88,-80,-68,-44,-8,40,112,220,352,476,592,728,884,1040,1164,1240,1240,1148,976,740,484,232,0,-204,-384,-512,-596,-636,-636,-600,-552,-504,-444,-388,-340,-284,-228,-184,-148,-112,-80,-52,-24,0,0,4,12,20,28,36,36,36,40,44,44,48,44,44,44,44,52,56,68,84,88,88,76,68,68,72,84,100,116,132,144,152,156,152,144,136,128,132,140,152,164,176,184,180,172,164,160,156,160,168,172,176,172,168,172,184,196,212,228,240,244,244,236,224,208,204,204,212,228,236,236,232,224,216,204,192,188,184,188,196,200,204,200,196,192,184,180,184,192,192,188,184,180,176,168,164,160,152,156,164,164,156,152,144,124,100,80,72,72,72,64,56,52,44,40,40,40,36,36,40,36,32,36,36,32,24,16,8,4,8,12,12,12,16,24,32,28,20,12,0,-16,-28,-36,-48,-64,-76,-76,-68,-52,-40,-32,-28,-32,-40,-48,-52,-52,-52,-52,-48,-44,-44,-48,-52,-60,-60,-56,-52,-44,-36,-28,-28,-36,-48,-68,-84,-96,-104,-100,-96,-92,-92,-96,-112,-132,-140,-144,-136,-128,-120,-116,-112,-116,-116,-112,-108,-104,-100,-92,-92,-92,-92,-92,-92,-96,-96,-92,-84,-68,-52,-36,-40,-56,-76,-88,-92,-96,-92,-88,-84,-88,-80,-76,-76,-76,-72,-68,-60,-44,-36,-32,-28,-24,-20,-20,-20,-20,-20,-12,-4,0,0,-4,-4,-8,-16,-24,-32,-44,-52,-56,-60,-76,-96,-116,-132,-148,-160,-168,-180,-184,-188,-192,-200,-204,-208,-212,-212,-208,-204,-200,-204,-204,-204,-200,-192,-188,-180,-172,-168,-172,-172,-176,-188,-208,-220,-224,-224,-220,-212,-212,-216,-224,-244,-260,-276,-288,-288,-276,-252,-232,-212,-196,-184,-160,-124,-52,48,184,324,448,560,684,816,936,1036,1072,1028,896,692,448,208,-16,-236,-436,-604,-724,-800,-824,-796,-736,-668,-604,-552,-508,-460,-408,-360,-308,-260,-216,-180,-152,-132,-124,-112,-104,-104,-104,-108,-104,-100,-104,-104,-96,-96,-104,-112,-112,-112,-100,-84,-68,-64,-64,-76,-84,-88,-76,-68,-56,-48,-44,-44,-52,-56,-56,-56,-44,-28,-16,0,8,8,0,0,0,0
2026-03-12 18:38:45,4,20,32,36,40,36,36,36,32,24,28,32,40,44,52,60,64,68,68,72,72,76,76,76,80,84,92,100,100,100,108,112,112,108,108,104,104,100,100,104,108,112,108,100,84,72,68,68,60,48,44,48,56,72,80,76,64,52,40,40,40,40,36,24,8,-4,-16,-20,-24,-24,-16,-8,-4,-8,-20,-36,-60,-80,-96,-108,-116,-124,-124,-120,-112,-108,-100,-96,-92,-88,-80,-68,-56,-44,-36,-40,-44,-40,-28,-20,-4,4,12,8,4,0,-4,-12,-28,-36,-32,-20,-4,12,20,12,-4,-20,-32,-32,-32,-36,-36,-32,-24,-20,-16,-12,-8,0,0,0,0,0,-4,-8,-12,-8,0,4,12,12,12,20,28,32,32,36,32,32,36,36,32,28,24,16,8,0,-4,0,12,16,20,24,24,24,28,36,44,52,56,64,72,72,64,60,60,68,76,88,116,140,160,168,164,140,116,104,96,96,96,92,88,92,96,104,108,112,116,120,124,120,112,100,92,92,92,88,84,76,64,56,52,44,32,20,12,4,0,0,4,4,0,-4,-12,-20,-36,-44,-52,-52,-52,-52,-52,-48,-48,-48,-48,-48,-48,-48,-48,-48,-44,-40,-32,-28,-24,-24,-28,-28,-16,-4,0,-4,-20,-40,-56,-56,-48,-40,-28,-20,-12,4,40,96,184,308,436,548,660,792,936,1068,1172,1224,1200,1092,900,660,412,164,-72,-292,-484,-620,-700,-724,-696,-636,-564,-496,-440,-392,-348,-300,-256,-220,-192,-160,-128,-92,-64,-48,-48,-60,-76,-88,-96,-92,-80,-64,-52,-40,-36,-44,-60,-72,-72,-60,-36,-12,4,20,24,20,12,8,8,16,24,32,32,28,24,20,16,16,12,12,16,24,36,44,44,36,20,12,8,8,12,16,20,20,20,20,20,28,32,36,44,48,52,56,56,56,60,60,60,60,68,76,80,80,64,40,20,12,12,8,8,0,-8,-20,-28,-40,-52,-60,-64,-64,-60,-56,-52,-48,-48,-52,-52,-52,-52,-44,-36,-24,-8,0,0,-4,-16,-32,-44,-60,-72,-80,-88,-96,-104,-116,-124,-128,-132,-136,-136,-132,-136,-136,-140,-148,-152,-152,-140,-128,-120,-116,-116,-116,-120,-124,-132,-136,-136,-128,-120,-112,-100,-84,-72,-64,-56,-56,-60,-60,-64,-68,-72,-76,-84,-96,-112,-124,-128,-128,-120,-120,-116,-116,-120,-128,-140,-148,-164,-180,-184,-180,-180,-180,-184,-192,-208,-220,-228,-232,-228,-220,-220,-216,-220,-220,-224,-232,-240,-240,-236,-232,-228,-220,-212,-212,-212,-212,-216,-212
2026-03-12 18:38:46,-204,-196,-192,-196,-196,-196,-196,-196,-200,-200,-192,-184,-172,-160,-156,-156,-148,-140,-136,-136,-124,-112,-108,-104,-100,-104,-116,-120,-116,-112,-104,-108,-116,-124,-136,-152,-156,-160,-168,-176,-184,-196,-208,-220,-232,-252,-272,-288,-304,-324,-340,-356,-372,-384,-396,-412,-428,-444,-464,-476,-484,-496,-516,-532,-544,-560,-580,-600,-612,-616,-612,-612,-612,-616,-620,-632,-648,-668,-688,-696,-696,-700,-704,-708,-708,-712,-720,-728,-728,-728,-732,-748,-768,-788,-804,-808,-800,-784,-760,-740,-708,-668,-620,-548,-452,-340,-228,-128,-28,80,216,344,432,476,460,360,172,-68,-320,-572,-800,-1004,-1176,-1300,-1380,-1416,-1404,-1364,-1308,-1244,-1184,-1132,-1088,-1044,-996,-952,-920,-888,-860,-828,-800,-780,-780,-784,-796,-808,-820,-828,-828,-816,-800,-788,-784,-784,-792,-796,-796,-788,-780,-772,-760,-752,-756,-760,-772,-784,-784,-780,-768,-752,-736,-724,-716,-716,-720,-720,-716,-708,-700,-688,-676,-664,-652,-644,-648,-648,-640,-624,-608,-592,-576,-568,-576,-584,-584,-580,-580,-572,-564,-552,-536,-524,-512,-512,-520,-532,-540,-544,-544,-536,-524,-508,-496,-492,-500,-508,-520,-536,-544,-544,-540,-536,-532,-536,-540,-548,-560,-572,-576,-576,-576,-580,-580,-580,-584,-592,-592,-592,-584,-576,-568,-564,-564,-572,-584,-592,-592,-588,-588,-584,-584,-588,-588,-584,-580,-580,-580,-572,-568,-564,-564,-560,-564,-564,-572,-584,-592,-600,-604,-600,-596,-600,-600,-600,-604,-608,-616,-620,-620,-616,-604,-588,-576,-568,-568,-568,-568,-564,-560,-556,-548,-544,-540,-536,-528,-520,-512,-504,-488,-476,-468,-468,-468,-468,-476,-488,-496,-504,-512,-512,-500,-488,-476,-460,-448,-448,-456,-460,-456,-456,-452,-452,-444,-440,-436,-436,-440,-444,-444,-436,-420,-412,-408,-404,-400,-392,-384,-384,-388,-396,-400,-396,-392,-392,-388,-388,-392,-396,-400,-396,-384,-372,-364,-356,-352,-348,-340,-340,-340,-332,-320,-304,-288,-276,-268,-268,-272,-264,-256,-248,-236,-228,-224,-216,-208,-204,-200,-196,-188,-176,-164,-160,-156,-156,-160,-172,-188,-200,-208,-208,-200,-196,-188,-188,-196,-204,-208,-212,-212,-212,-208,-216,-228,-232,-236,-240,-236,-224,-216,-212,-216,-220,-216,-216,-216,-220,-224,-228,-232,-236,-236,-228,-224,-216,-220,-224,-220,-212,-208,-208,-208,-212,-216,-212,-216,-224,-236,-240,-240,-228,-200,-176,-152,-136,-124,-112,-92,-40,40,164,304,424,532,652,792,928,1044,1108,1108,1048,904,688,452,212,-20,-240,-436,-592,-692,-736,-724,-680,-620,-560,-508,-460,-412,-368,-324,-280,-236,-200,-176,-152,-136,-120,-112,-108,-116,-120,-120,-116,-104,-88,-80,-76,-76,-76,-76,-68
2026-03-12 18:38:47,-60,-48,-36,-24,-20,-16,-12,-12,-16,-16,-8,0,4,16,28,32,36,36,32,24,28,32,36,44,44,48,52,60,68,72,72,68,64,72,80,84,88,84,84,96,112,132,140,148,152,148,148,148,148,144,140,144,148,156,160,160,152,144,140,140,144,148,152,156,160,156,144,136,132,136,140,140,148,152,148,136,128,124,128,136,144,148,144,140,136,136,132,132,128,128,128,132,136,132,124,116,112,104,96,84,80,88,92,96,92,76,64,60,60,68,76,76,76,76,72,68,60,60,56,56,64,68,64,60,56,52,48,40,40,40,40,44,52,56,52,48,44,40,40,52,68,84,100,100,92,84,80,76,72,68,68,64,56,52,44,40,40,40,44,60,76,84,92,100,100,100,96,84,76,80,88,100,112,124,124,116,112,108,112,116,116,116,120,124,128,120,112,112,108,104,92,80,76,76,76,80,80,76,72,76,88,104,116,124,128,132,136,144,152,164,176,184,192,192,188,188,196,204,208,216,228,240,244,240,232,220,212,204,200,204,216,224,228,232,224,216,208,200,196,204,212,208,204,200,188,176,168,168,164,160,156,148,144,140,136,132,132,128,120,112,108,104,100,100,92,84,76,68,60,52,52,56,60,64,64,60,56,52,52,60,72,80,92,96,96,84,68,56,44,36,32,32,40,60,80,96,124,156,208,300,436,584,716,832,956,1100,1236,1348,1424,1440,1376,1220,988,720,456,208,-12,-196,-328,-404,-428,-404,-356,-300,-240,-184,-132,-88,-44,0,32,68,100,124,144,160,176,192,196,196,192,184,176,172,172,180,184,180,176,172,172,172,172,176,176,172,164,156,148,144,148,156,168,180,188,188,196,200,200,200,204,212,224,232,236,240,248,252,244,236,240,244,248,248,244,248,252,248,240,244,252,256,264,272,276,272,268,268,268,276,288,300,308,312,308,300,296,288,280,272,268,268,272,272,272,268,268,260,252,240,232,236,244,248,244,236,232,224,224,224,224,228,232,232,228,220,212,208,204,200,192,180,168,160,144,124,108,96,96,92,88,80,76,64,56,52,56,56,52,52,56,56,56,56,48,36,32,28,24,28,32,40,48,60,60,52,48,40,32,24,32,40,40,40,40,36,32,32,36,48,56,60,60,60,56,52,52,60,68,80
2026-03-12 18:38:48,92,96,96,100,100,92,88,84,88,92,96,92,80,68,56,48,40,40,32,32,36,32,28,20,12,8,4,0,-4,0,0,0,8,12,12,4,4,0,0,0,0,8,16,20,16,4,0,-4,-4,0,16,28,40,44,40,28,24,16,12,12,16,16,20,24,28,32,40,48,52,64,76,84,92,96,96,92,92,96,104,124,144,156,160,160,156,144,132,112,92,88,88,84,76,60,36,12,-4,-12,-20,-24,-28,-36,-40,-40,-44,-48,-48,-48,-52,-56,-52,-48,-48,-40,-36,-28,-24,-16,-12,-8,-4,0,12,24,20,20,24,24,28,32,28,20,16,20,20,12,0,-12,-32,-48,-48,-32,-16,0,4,16,40,80,148,252,396,548,684,812,944,1080,1204,1304,1356,1340,1236,1040,772,500,244,12,-188,-352,-468,-532,-556,-544,-508,-456,-404,-356,-308,-256,-200,-144,-100,-68,-40,-20,-4,0,8,8,4,4,8,12,20,24,24,24,24,24,28,36,44,44,44,40,36,32,36,44,44,52,56,60,60,64,64,72,80,88,100,112,120,132,140,156,164,172,176,180,180,184,192,200,208,216,224,232,228,216,208,212,220,224,232,232,232,232,232,232,236,248,268,288,304,316,320,320,312,312,308,304,304,300,308,316,320,316,316,312,304,300,296,300,304,312,320,320,316,308,304,304,312,316,320,320,316,312,312,304,296,300,308,312,312,296,272,252,236,228,228,232,236,236,232,224,216,204,196,192,192,196,204,212,220,220,220,220,220,220,220,220,220,220,216,216,216,216,220,224,220,224,232,236,248,256,256,248,232,212,192,184,188,192,204,212,220,220,216,212,212,216,220,228,236,244,252,256,264,264,264,264,264,264,264,268,264,256,252,248,240,240,236,228,216,204,188,164,144,132,132,136,140,148,156,160,156,152,144,144,144,148,156,168,172,172,172,168,168,172,184,200,216,228,236,244,244,240,240,240,244,248,252,256,260,260,260,256,248,240,228,228,232,236,240,240,236,232,232,232,232,228,224,224,224,224,216,204,196,188,172,160,148,140,132,124,116,108,104,100,104,108,112,108,104,104,104,92,80,72,72,80,96,104,108,104,92,88,88,80,80,80,84,88,96,100,104,100,100,96,92,88,84,76,64,48,28,20,32,48,64,76,96,124,164,232,332,464,604,724,836,964
2026-03-12 18:38:49,1100,1220,1304,1328,1260,1108,880,612,356,124,-80,-256,-388,-480,-536,-552,-532,-488,-432,-372,-316,-264,-208,-140,-80,-32,4,28,48,68,88,104,116,120,120,124,132,144,156,172,184,192,192,188,180,176,176,176,176,180,200,216,224,224,216,204,196,188,188,200,216,232,244,252,252,248,248,252,260,280,292,304,312,320,324,324,324,320,324,328,336,336,340,344,344,344,336,328,328,340,356,372,384,392,392,388,384,384,384,392,400,404,400,392,380,372,372,380,384,392,400,400,396,384,360,340,332,332,340,356,364,368,368,368,364,360,360,360,364,372,380,388,388,376,356,336,316,308,308,316,328,332,340,340,336,324,312,300,288,288,296,308,316,320,316,308,292,280,272,268,264,256,252,244,236,232,228,232,240,256,268,276,276,268,252,236,228,228,232,240,256,268,280,288,292,288,276,268,260,256,260,272,284,292,292,288,280,272,264,264,272,280,284,280,260,240,228,224,232,248,260,272,276,268,256,240,224,220,220,232,244,256,260,260,260,252,240,232,228,236,252,268,272,268,252,232,212,208,212,220,236,248,252,252,248,244,240,240,244,252,256,264,280,292,288,276,264,252,252,260,276,288,296,300,288,272,256,240,228,228,224,216,208,196,184,172,164,156,156,160,168,172,168,156,140,128,116,100,92,96,108,116,124,128,124,116,116,112,112,124,144,152,144,128,100,68,44,32,32,44,60,76,92,96,92,80,68,56,48,44,48,56,80,104,116,124,136,148,180,240,340,464,600,724,836,964,1104,1232,1332,1380,1356,1236,1024,748,460,192,-48,-256,-420,-524,-572,-564,-524,-472,-424,-380,-332,-280,-220,-156,-92,-40,0,20,28,28,24,24,36,48,56,68,80,88,88,84,76,64,56,60,72,80,84,84,72,64,60,68,76,84,96,104,108,112,112,112,116,124,140,160,168,176,184,184,176,172,164,156,156,160,160,160,168,172,164,156,148,144,148,152,160,168,176,184,188,188,188,192,200,212,220,228,232,240,244,248,252,252,244,240,236,240,236,224,208,188,168,152,148,152,156,148,140,128,116,116,116,112,108,112,124,132,136,140,136,132,124,112,108,108,112,112,112,112,108,108,108,112,116,116,120,112,104,84,64,48,44,40,44,48,44,36,24,20,16,8,4,4,8,20
2026-03-12 18:38:50,32,40,52,60,68,68,64,60,68,84,100,112,124,128,132,132,132,128,128,144,164,184,188,184,168,148,128,112,96,84,68,56,56,56,48,44,44,44,48,60,72,80,80,76,68,56,48,48,56,68,84,88,88,84,76,72,64,64,68,84,100,108,112,112,104,88,68,52,52,56,64,76,88,96,96,92,88,88,96,112,132,148,160,160,156,148,144,148,148,148,152,164,168,168,164,160,152,140,132,140,152,156,160,156,140,108,76,56,48,52,52,52,52,48,40,36,36,36,36,32,32,36,36,28,20,12,12,20,32,52,64,72,72,68,64,60,56,60,68,84,92,96,92,84,76,76,76,72,64,60,60,64,72,84,92,96,112,136,176,240,332,452,588,716,832,948,1092,1240,1372,1464,1496,1460,1328,1108,848,572,308,80,-96,-220,-300,-336,-328,-292,-244,-188,-128,-72,-16,32,84,132,168,196,212,224,224,224,224,228,240,248,264,268,264,264,260,256,256,264,272,276,280,288,296,304,300,300,304,312,320,328,332,332,332,328,328,328,328,332,328,328,328,328,316,308,304,308,308,304,308,308,312,312,308,300,292,288,288,292,296,304,312,308,300,292,288,284,280,280,284,292,292,280,264,252,244,232,224,216,208,200,192,184,180,176,164,144,124,116,108,100,92,88,80,76,68,68,60,60,56,56,60,64,64,60,56,48,48,52,52,56,60,52,40,28,24,16,4,-4,-24,-44,-52,-60,-72,-84,-100,-112,-112,-104,-92,-84,-80,-80,-84,-88,-92,-92,-96,-96,-96,-92,-88,-92,-96,-100,-108,-116,-124,-128,-128,-120,-112,-108,-112,-124,-132,-144,-152,-156,-160,-160,-152,-140,-140,-148,-152,-152,-152,-144,-144,-144,-144,-148,-160,-176,-180,-180,-180,-176,-176,-180,-188,-200,-216,-232,-248,-264,-276,-280,-284,-288,-296,-300,-308,-320,-336,-352,-364,-368,-368,-376,-388,-396,-404,-412,-420,-424,-428,-424,-420,-412,-408,-408,-416,-428,-432,-432,-440,-444,-440,-428,-420,-416,-432,-452,-464,-480,-484,-476,-464,-452,-452,-460,-472,-484,-496,-504,-504,-496,-484,-476,-476,-496,-532,-568,-596,-620,-628,-628,-636,-652,-664,-680,-704,-724,-740,-744,-748,-744,-744,-748,-748,-752,-764,-780,-792,-800,-804,-804,-804,-804,-804,-808,-824,-836,-844,-852,-856,-864,-868,-876,-884,-904,-932,-952,-968,-984,-1004,-1012,-1012,-1012,-1008,-1000,-996,-996,-988,-960,-908,-812,-684,-552,-440,-344,-232,-104,16,116,176,176
2026-03-12 18:38:51,104,-60,-304,-576,-852,-1104,-1320,-1500,-1632,-1716,-1756,-1752,-1724,-1688,-1652,-1620,-1588,-1552,-1504,-1448,-1400,-1372,-1364,-1360,-1360,-1356,-1352,-1340,-1332,-1320,-1312,-1312,-1320,-1332,-1348,-1364,-1372,-1372,-1364,-1356,-1356,-1364,-1372,-1384,-1388,-1392,-1392,-1388,-1380,-1360,-1340,-1324,-1320,-1320,-1328,-1336,-1344,-1352,-1356,-1356,-1352,-1348,-1340,-1340,-1352,-1372,-1384,-1392,-1400,-1396,-1396,-1392,-1392,-1396,-1408,-1420,-1424,-1428,-1432,-1432,-1428,-1432,-1436,-1444,-1452,-1460,-1460,-1460,-1456,-1448,-1444,-1440,-1436,-1436,-1440,-1448,-1464,-1476,-1488,-1496,-1508,-1516,-1528,-1540,-1560,-1584,-1612,-1632,-1644,-1644,-1644,-1648,-1656,-1672,-1692,-1708,-1720,-1724,-1728,-1720,-1716,-1712,-1712,-1712,-1724,-1740,-1752,-1756,-1756,-1756,-1756,-1760,-1768,-1784,-1800,-1808,-1812,-1816,-1816,-1828,-1848,-1876,-1908,-1944,-1968,-1988,-2008,-2016,-2020,-2020,-2024,-2028,-2036,-2044,-2060,-2076,-2092,-2100,-2104,-2104,-2100,-2100,-2112,-2124,-2144,-2156,-2164,-2168,-2164,-2160,-2160,-2164,-2168,-2164,-2172,-2184,-2200,-2216,-2220,-2216,-2224,-2244,-2268,-2292,-2308,-2320,-2332,-2348,-2352,-2352,-2352,-2356,-2368,-2388,-2408,-2432,-2444,-2452,-2460,-2460,-2464,-2468,-2476,-2484,-2496,-2512,-2528,-2540,-2548,-2552,-2556,-2568,-2584,-2600,-2612,-2624,-2632,-2640,-2640,-2636,-2640,-2656,-2696,-2740,-2780,-2804,-2828,-2844,-2856,-2856,-2856,-2864,-2880,-2904,-2928,-2952,-2968,-2988,-3000,-3004,-3008,-3020,-3036,-3056,-3080,-3096,-3108,-3124,-3144,-3156,-3164,-3184,-3204,-3220,-3244,-3272,-3304,-3340,-3368,-3396,-3432,-3468,-3496,-3524,-3556,-3596,-3640,-3688,-3732,-3780,-3824,-3876,-3936,-4000,-4064,-4116,-4160,-4196,-4232,-4268,-4304,-4340,-4376,-4420,-4472,-4520,-4564,-4604,-4632,-4656,-4684,-4720,-4760,-4800,-4848,-4896,-4932,-4960,-4980,-5004,-5024,-5044,-5072,-5108,-5152,-5200,-5240,-5268,-5292,-5316,-5344,-5360,-5364,-5364,-5368,-5368,-5356,-5336,-5288,-5208,-5092,-4952,-4812,-4692,-4576,-4436,-4292,-4164,-4068,-4020,-4060,-4196,-4416,-4684,-4948,-5192,-5400,-5572,-5692,-5744,-5736,-5688,-5620,-5556,-5500,-5448,-5388,-5320,-5248,-5172,-5096,-5028,-4968,-4912,-4864,-4816,-4768,-4716,-4664,-4600,-4536,-4476,-4420,-4368,-4312,-4252,-4192,-4128,-4060,-3988,-3920,-3856,-3792,-3736,-3688,-3644,-3592,-3528,-3456,-3380,-3316,-3260,-3204,-3144,-3088,-3032,-2968,-2904,-2836,-2764,-2696,-2624,-2548,-2476,-2416,-2348,-2276,-2204,-2124,-2044,-1960,-1880,-1800,-1728,-1660,-1588,-1508,-1432,-1356,-1276,-1188,-1100,-1016,-932,-852,-780,-708,-632,-552,-472,-396,-316,-236,-156,-80,-12,56,128,204,280,360,436,512,588,652,720,788,856,932,1016,1104,1192,1284,1376,1464,1552,1640,1736,1828,1920,2008,2092,2172,2248,2328,2412,2500,2588,2664,2744,2824,2904,2984,3064,3140,3212,3280,3348,3424,3504,3588,3672,3756,3836,3904,3976,4048,4124,4204,4292,4376,4460,4544,4620,4696,4768,4844,4928,5012,5104,5188,5268,5340,5412,5472,5528,5588,5656,5728,5804
2026-03-12 18:38:52,5880,5940,5996,6052,6112,6176,6240,6304,6368,6440,6516,6592,6664,6732,6796,6856,6912,6968,7028,7088,7152,7208,7260,7316,7376,7436,7492,7544,7592,7648,7696,7744,7764,7740,7708,7728,7816,7912,7988,8024,7984,7848,7664,7492,7376,7348,7408,7508,7600,7628,7568,7428,7244,7072,6960,6932,6988,7088,7172,7204,7148,7012,6836,6672,6564,6540,6592,6688,6776,6800,6748,6620,6452,6292,6192,6168,6220,6312,6396,6424,6372,6248,6088,5936,5836,5820,5872,5960,6040,6064,6020,5900,5748,5600,5508,5488,5536,5624,5700,5728,5680,5568,5420,5280,5192,5176,5224,5308,5384,5412,5368,5260,5116,4984,4900,4884,4932,5012,5084,5108,5068,4964,4828,4700,4620,4604,4652,4732,4800,4828,4788,4688,4556,4436,4356,4340,4384,4464,4532,4556,4520,4424,4300,4180,4108,4096,4140,4212,4280,4304,4268,4180,4056,3944,3876,3864,3904,3976,4040,4064,4032,3944,3828,3720,3652,3640,3680,3752,3816,3840,3808,3724,3616,3512,3444,3436,3472,3540,3604,3628,3596,3516,3412,3312,3248,3240,3280,3344,3400,3424,3396,3320,3220,3124,3064,3052,3092,3156,3212,3236,3208,3136,3036,2948,2888,2880,2916,2976,3032,3056,3028,2960,2864,2776,2724,2716,2752,2812,2864,2884,2860,2796,2704,2620,2568,2560,2596,2652,2704,2724,2704,2640,2552,2472,2420,2416,2448,2504,2552,2572,2552,2488,2408,2332,2284,2276,2308,2364,2412,2432,2412,2352,2272,2196,2152,2148,2180,2228,2276,2296,2276,2220,2144,2072,2028,2024,2056,2104,2148,2168,2152,2096,2024,1952,1912,1908,1936,1984,2028,2048,2032,1980,1908,1844,1804,1800,1828,1876,1916,1936,1920,1868,1800,1740,1700,1696,1724,1768,1812,1828,1812,1764,1700,1640,1604,1600,1624,1672,1712,1728,1712,1668,1604,1548,1512,1508,1536,1576,1616,1632,1616,1572,1516,1460,1424,1420,1444,1488,1524,1540,1528,1484,1428,1376,1340,1340,1364,1404,1440,1456,1440,1400,1348,1296,1264,1264,1288,1324,1360,1376,1364,1324,1272,1224,1192,1188,1212,1248,1284,1300,1288,1252,1200,1152,1124,1120,1144,1180,1212,1228,1216,1180,1132,1088,1060,1060,1080,1116,1144,1160,1148,1116,1068,1024,996,996,1016,1052,1080,1096,1084,1052,1008,964,940,936,960,992,1020,1032,1024,992,952,912,884,884,904,916,900,892,908,904,880,848,832,832,840,808,736,688,704,752,772,768,764,760,712,608,496,428,424,484,568,632,652,608,500,356,228,152,152,208,292,368,396,352,248,116,-4,-76,-84,-32,52,120,140,96,0,-116,-228,-296,-296,-240,-160,-92,-72,-112,-216,-356,-480,-536,-516,-440,-336,-248,-208,-224,-280,-344,-360,-288,-148,28,220,396,520,600,616,548,416,252,68,-116,-280,-440,-632,-856,-1092,-1312,-1472,-1548
2026-03-12 18:38:53,-1532,-1440,-1308,-1188,-1112,-1096,-1124,-1168,-1200,-1192,-1140,-1048,-944,-860,-816,-828,-896,-992,-1080,-1128,-1120,-1068,-984,-912,-884,-900,-972,-1068,-1152,-1196,-1192,-1140,-1060,-992,-960,-980,-1040,-1124,-1204,-1240,-1228,-1176,-1096,-1020,-988,-1016,-1084,-1168,-1240,-1284,-1280,-1232,-1164,-1108,-1084,-1104,-1168,-1256,-1332,-1372,-1364,-1312,-1236,-1168,-1140,-1152,-1208,-1284,-1352,-1384,-1368,-1312,-1240,-1176,-1148,-1164,-1216,-1288,-1356,-1388,-1372,-1320,-1256,-1204,-1188,-1204,-1252,-1320,-1388,-1424,-1424,-1388,-1340,-1296,-1272,-1292,-1356,-1440,-1508,-1536,-1524,-1472,-1408,-1360,-1344,-1364,-1412,-1476,-1532,-1564,-1556,-1512,-1448,-1392,-1360,-1364,-1400,-1456,-1512,-1544,-1544,-1508,-1456,-1416,-1400,-1428,-1488,-1560,-1624,-1656,-1656,-1624,-1572,-1524,-1504,-1516,-1556,-1616,-1668,-1692,-1688,-1652,-1596,-1544,-1512,-1520,-1556,-1608,-1652,-1668,-1656,-1620,-1560,-1508,-1484,-1492,-1528,-1576,-1624,-1644,-1636,-1604,-1552,-1508,-1484,-1496,-1540,-1592,-1632,-1648,-1632,-1596,-1548,-1500,-1480,-1488,-1524,-1568,-1604,-1612,-1596,-1556,-1504,-1460,-1452,-1472,-1516,-1564,-1600,-1616,-1612,-1584,-1536,-1496,-1480,-1492,-1528,-1576,-1620,-1640,-1632,-1608,-1564,-1524,-1508,-1508,-1528,-1568,-1608,-1628,-1620,-1596,-1556,-1512,-1484,-1484,-1516,-1560,-1596,-1612,-1604,-1568,-1520,-1476,-1456,-1464,-1496,-1540,-1572,-1576,-1560,-1532,-1492,-1452,-1436,-1448,-1480,-1528,-1568,-1584,-1572,-1540,-1500,-1464,-1444,-1448,-1484,-1528,-1564,-1576,-1564,-1540,-1504,-1476,-1472,-1488,-1520,-1564,-1596,-1608,-1600,-1576,-1544,-1520,-1508,-1508,-1528,-1560,-1588,-1596,-1584,-1556,-1520,-1492,-1472,-1476,-1496,-1536,-1564,-1576,-1568,-1544,-1508,-1476,-1464,-1468,-1488,-1524,-1560,-1572,-1564,-1544,-1512,-1480,-1472,-1488,-1524,-1572,-1616,-1636,-1620,-1580,-1520,-1464,-1440,-1440,-1456,-1464,-1444,-1376,-1252,-1084,-908,-764,-628,-496,-380,-300,-256,-264,-332,-464,-664,-900,-1148,-1400,-1644,-1852,-2004,-2092,-2120,-2096,-2028,-1952,-1880,-1824,-1784,-1756,-1732,-1692,-1644,-1580,-1516,-1464,-1432,-1424,-1428,-1452,-1468,-1468,-1452,-1416,-1380,-1348,-1340,-1344,-1356,-1372,-1388,-1392,-1384,-1364,-1332,-1300,-1276,-1272,-1280,-1296,-1316,-1328,-1332,-1328,-1304,-1280,-1272,-1272,-1284,-1308,-1328,-1332,-1320,-1296,-1268,-1240,-1228,-1228,-1236,-1248,-1256,-1252,-1240,-1220,-1192,-1168,-1148,-1148,-1156,-1176,-1192,-1192,-1172,-1144,-1116,-1088,-1076,-1080,-1104,-1132,-1156,-1168,-1180,-1172,-1152,-1124,-1108,-1108,-1120,-1148,-1176,-1184,-1180,-1164,-1148,-1140,-1144,-1160,-1180,-1196,-1212,-1216,-1204,-1188,-1172,-1156,-1156,-1160,-1168,-1176,-1176,-1176,-1172,-1160,-1148,-1140,-1140,-1148,-1164,-1184,-1200,-1212,-1212,-1200,-1184,-1176,-1184,-1204,-1232,-1256,-1272,-1280,-1280,-1272,-1256,-1252,-1256,-1276,-1304,-1332,-1360,-1372,-1372,-1364,-1348,-1336,-1332,-1336,-1348,-1364,-1376,-1376,-1372,-1360,-1344,-1328,-1328,-1340,-1356,-1368,-1372,-1368,-1360,-1348,-1332,-1320,-1320,-1324,-1336,-1348,-1360,-1360
2026-03-12 18:38:54,-1356,-1344,-1324,-1304,-1296,-1300,-1320,-1336,-1352,-1356,-1352,-1340,-1320,-1300,-1284,-1272,-1272,-1284,-1296,-1296,-1288,-1276,-1260,-1252,-1244,-1240,-1244,-1252,-1260,-1256,-1248,-1232,-1204,-1184,-1176,-1172,-1176,-1192,-1208,-1208,-1204,-1204,-1196,-1192,-1188,-1188,-1188,-1188,-1184,-1180,-1168,-1156,-1140,-1124,-1116,-1116,-1116,-1116,-1108,-1096,-1076,-1056,-1036,-1024,-1020,-1012,-1012,-1016,-1020,-1012,-1008,-1000,-988,-972,-960,-960,-968,-980,-992,-1000,-1000,-992,-976,-968,-972,-984,-996,-1012,-1024,-1036,-1036,-1028,-1020,-1020,-1012,-1008,-1012,-1020,-1024,-1020,-1008,-992,-976,-964,-956,-956,-956,-960,-960,-952,-944,-924,-908,-904,-904,-904,-912,-920,-920,-916,-900,-880,-868,-864,-868,-884,-908,-940,-960,-956,-928,-892,-848,-816,-796,-780,-752,-700,-612,-492,-352,-220,-96,32,180,316,416,468,464,392,240,24,-212,-456,-688,-892,-1056,-1180,-1256,-1292,-1296,-1272,-1228,-1188,-1152,-1116,-1076,-1036,-988,-928,-864,-812,-776,-756,-748,-740,-736,-736,-736,-728,-716,-700,-680,-660,-644,-644,-648,-664,-672,-672,-664,-652,-632,-616,-604,-600,-604,-616,-624,-624,-616,-608,-596,-592,-588,-580,-576,-580,-576,-568,-548,-536,-532,-528,-524,-520,-520,-520,-516,-520,-520,-512,-492,-472,-460,-456,-460,-464,-464,-460,-456,-444,-432,-420,-416,-416,-424,-432,-432,-428,-416,-404,-388,-372,-356,-348,-360,-388,-416,-436,-444,-444,-440,-436,-436,-440,-452,-460,-468,-468,-464,-460,-448,-436,-424,-420,-424,-428,-432,-436,-432,-424,-412,-408,-404,-404,-408,-420,-432,-436,-432,-428,-416,-412,-420,-428,-440,-456,-468,-472,-464,-456,-452,-452,-452,-456,-464,-488,-504,-512,-512,-508,-500,-496,-496,-492,-492,-496,-504,-512,-516,-516,-516,-512,-504,-496,-492,-492,-492,-492,-492,-488,-480,-472,-468,-468,-476,-488,-500,-504,-500,-488,-480,-472,-468,-468,-472,-476,-476,-472,-476,-476,-464,-456,-448,-444,-436,-432,-424,-428,-432,-436,-436,-436,-444,-444,-448,-456,-460,-456,-456,-460,-460,-464,-476,-484,-492,-496,-504,-500,-492,-484,-468,-460,-448,-440,-432,-428,-420,-412,-400,-380,-356,-344,-340,-336,-332,-332,-328,-324,-324,-320,-316,-316,-316,-308,-300,-296,-288,-284,-280,-272,-264,-252,-244,-236,-232,-232,-232,-224,-212,-196,-172,-152,-136,-124,-120,-120,-112,-104,-92,-80,-64,-44,-32,-20,-12,-4,0,0,0,4,8,12,20,20,20,20,24,24,28,32,40,40,40,40,36,32,32,40,48,48,52,52,48,40,32,20,12,8,0,-4,-12,-20,-16,-8,-4,0,8,24,44,80,144,252,380,516,628,736,856,988,1104,1184,1204,1156,1020,800,532,256,4,-212,-396,-532,-620,-664,-676,-656,-620,-572,-524,-480
2026-03-12 18:38:55,-436,-396,-356,-316,-276,-240,-216,-192,-172,-156,-144,-140,-136,-144,-148,-148,-148,-144,-140,-136,-136,-144,-152,-156,-156,-156,-160,-164,-172,-184,-200,-208,-212,-216,-224,-228,-228,-224,-224,-224,-224,-212,-208,-204,-204,-200,-204,-212,-220,-220,-216,-212,-204,-204,-204,-200,-192,-184,-176,-172,-168,-168,-164,-156,-156,-156,-156,-152,-148,-144,-136,-132,-132,-132,-124,-112,-104,-100,-104,-116,-124,-124,-120,-108,-100,-92,-92,-92,-96,-96,-96,-108,-124,-136,-136,-128,-128,-132,-140,-140,-144,-144,-144,-144,-148,-148,-152,-168,-184,-200,-212,-224,-232,-236,-248,-256,-264,-264,-264,-268,-284,-304,-328,-348,-356,-360,-356,-348,-340,-324,-316,-312,-316,-324,-336,-348,-360,-368,-368,-364,-360,-364,-368,-376,-380,-372,-360,-348,-344,-340,-336,-332,-332,-332,-332,-324,-316,-308,-304,-300,-304,-316,-316,-312,-296,-288,-284,-284,-284,-288,-292,-284,-276,-264,-256,-248,-248,-244,-236,-228,-232,-240,-244,-240,-236,-236,-228,-224,-224,-224,-224,-220,-220,-216,-212,-204,-192,-184,-176,-164,-156,-152,-164,-180,-200,-216,-232,-236,-228,-212,-192,-176,-160,-152,-148,-148,-148,-148,-148,-156,-164,-164,-152,-136,-116,-92,-76,-60,-48,-40,-36,-36,-32,-24,-20,-4,16,32,44,56,60,60,64,68,68,68,72,72,68,64,64,68,76,76,72,72,72,64,56,52,52,52,56,48,44,44,48,52,56,56,52,44,36,36,40,52,72,80,84,84,84,88,100,116,128,132,132,124,124,136,152,164,176,176,180,184,188,188,192,188,172,156,156,164,176,188,208,240,264,292,324,364,436,544,684,832,972,1116,1256,1392,1512,1588,1592,1524,1388,1168,900,624,376,152,-36,-180,-256,-276,-252,-196,-128,-68,-16,36,88,144,208,276,336,376,408,416,412,404,400,400,396,404,416,444,476,492,496,496,500,488,484,488,492,476,456,444,448,464,484,504,520,528,524,520,516,512,496,488,492,512,548,588,616,636,648,640,624,608,576,548,544,556,572,600,628,648,656,652,644,624,612,620,640,660,676,680,680,684,696,704,720,740,764,780,776,744,700,660,640,640,660,696,728,748,752,740,708,676,660,652,652,656,664,664,664,656,640,628,628,640,668,708,740,748,728,688,648,612,588,584,588,604,636,668,684,668,636,600,560,524,504,508,528,548,560,556,540,520,496,476,476,488,500,512,508,496,484,472,464,472,504,548,580,596,576,532,480,444,428,440,468,500,532,560,580,576,564,548
2026-03-12 18:38:56,524,496,480,488,504,528,548,564,568,560,540,512,488,484,492,496,488,468,448,436,436,448,468,488,512,544,564,560,536,496,440,388,380,396,412,428,440,444,448,444,436,424,424,432,444,448,436,412,388,372,380,412,452,492,512,500,464,420,384,368,368,388,432,496,556,600,624,604,544,468,416,404,428,464,500,528,544,544,540,540,544,544,548,560,580,584,572,544,516,500,492,496,516,536,552,564,564,544,516,496,480,480,496,512,520,516,496,468,432,416,424,448,476,496,504,500,492,468,436,424,428,444,468,492,512,524,520,504,484,472,464,472,496,524,544,556,564,560,552,540,524,512,524,548,572,596,608,600,580,564,560,584,644,744,884,1032,1160,1252,1344,1440,1540,1624,1684,1676,1580,1396,1148,880,620,396,216,88,20,0,16,56,104,140,160,192,232,296,384,472,540,600,640,652,636,608,584,580,596,624,656,688,700,688,660,632,608,608,636,680,732,776,804,804,784,760,740,740,768,812,856,892,900,884,848,804,772,760,784,832,892,940,964,952,916,876,840,828,856,912,980,1040,1068,1040,980,916,856,828,840,884,940,992,1016,996,944,880,828,812,840,908,980,1036,1064,1044,988,920,860,840,868,928,1004,1076,1112,1092,1036,964,904,876,900,968,1048,1116,1144,1108,1024,920,840,808,832,896,972,1032,1048,1008,928,832,756,728,756,820,896,956,972,928,848,752,680,656,688,748,816,868,876,832,756,668,592,564,592,660,732,784,796,752,680,596,528,500,532,604,684,752,776,744,680,600,532,508,536,588,644,668,648,576,484,388,308,280,312,380,448,500,504,448,356,264,192,168,196,268,344,400,412,372,296,220,160,144,176,236,300,340,332,276,192,108,44,24,56,112,172,216,216,172,104,32,-20,-32,-4,48,108,148,144,96,24,-48,-104,-112,-80,-24,24,64,64,28,-24,-92,-144,-160,-136,-80,-24,12,16,-12,-64,-132,-184,-196,-168,-120,-76,-40,-40,-80,-144,-208,-268,-296,-280,-236,-192,-160,-164,-212,-292,-380,-448,-484,-476,-444,-408,-384,-396,-444,-512,-584,-640,-664,-644,-592,-536,-504,-504,-548,-616,-684,-736,-752,-732,-688,-636,-604,-612,-656,-716,-780,-832,-856,-840,-796,-752,-724,-720,-760,-816,-876,-928,-944,-928,-896,-864,-848,-864,-908,-960,-1012,-1056,-1064,-1036,-976,-904,-828,-756,-688,-612,-540,-480,-380,-228,-64,76,164,148,8,-236,-540
2026-03-12 18:38:57,-832,-1072,-1252,-1388,-1496,-1580,-1660,-1724,-1760,-1772,-1760,-1712,-1636,-1548,-1456,-1372,-1312,-1292,-1296,-1320,-1336,-1320,-1268,-1200,-1128,-1072,-1056,-1080,-1128,-1172,-1204,-1204,-1168,-1108,-1036,-968,-940,-964,-1032,-1116,-1200,-1240,-1240,-1212,-1172,-1132,-1116,-1132,-1168,-1196,-1212,-1196,-1148,-1084,-1020,-980,-976,-1004,-1048,-1100,-1140,-1136,-1092,-1032,-980,-936,-912,-912,-928,-936,-948,-952,-944,-936,-936,-940,-960,-996,-1040,-1076,-1100,-1096,-1068,-1032,-996,-964,-956,-976,-1008,-1036,-1052,-1040,-1000,-944,-884,-840,-828,-852,-896,-944,-992,-1020,-1020,-1004,-984,-964,-960,-984,-1020,-1056,-1072,-1064,-1020,-976,-936,-916,-916,-944,-976,-1004,-1016,-992,-936,-872,-820,-788,-796,-844,-904,-960,-1000,-1008,-984,-940,-892,-852,-828,-820,-816,-828,-860,-880,-892,-900,-896,-868,-832,-808,-808,-820,-860,-900,-916,-896,-864,-836,-840,-880,-936,-976,-988,-960,-892,-820,-776,-780,-808,-832,-848,-864,-860,-824,-788,-764,-752,-756,-784,-836,-880,-892,-884,-860,-828,-796,-764,-732,-704,-688,-696,-744,-820,-880,-904,-904,-892,-888,-908,-940,-964,-992,-1024,-1060,-1088,-1104,-1084,-1036,-1012,-1044,-1116,-1192,-1248,-1276,-1280,-1288,-1300,-1312,-1336,-1376,-1416,-1448,-1464,-1456,-1428,-1388,-1348,-1324,-1340,-1384,-1420,-1432,-1432,-1424,-1416,-1408,-1380,-1340,-1320,-1332,-1368,-1424,-1488,-1540,-1576,-1588,-1604,-1640,-1696,-1756,-1816,-1872,-1896,-1888,-1856,-1824,-1792,-1768,-1772,-1800,-1840,-1876,-1904,-1916,-1904,-1880,-1848,-1828,-1820,-1816,-1824,-1848,-1880,-1912,-1924,-1928,-1932,-1928,-1924,-1920,-1908,-1900,-1888,-1860,-1828,-1792,-1748,-1708,-1684,-1676,-1676,-1680,-1692,-1692,-1664,-1616,-1568,-1532,-1524,-1544,-1580,-1624,-1656,-1656,-1632,-1600,-1580,-1568,-1572,-1580,-1592,-1604,-1612,-1604,-1572,-1528,-1468,-1392,-1296,-1196,-1084,-988,-888,-760,-604,-456,-336,-276,-312,-448,-652,-880,-1080,-1224,-1328,-1412,-1484,-1540,-1588,-1632,-1660,-1660,-1632,-1572,-1488,-1396,-1308,-1232,-1184,-1172,-1176,-1176,-1164,-1132,-1076,-1012,-940,-872,-824,-800,-792,-784,-772,-744,-696,-632,-568,-508,-464,-448,-440,-440,-432,-396,-344,-284,-236,-200,-192,-196,-204,-212,-216,-196,-156,-112,-68,-32,-8,-4,-8,-8,-8,0,32,72,108,140,152,144,128,116,124,164,224,280,320,332,312,264,212,176,156,168,208,264,316,360,376,372,356,324,300,292,308,332,364,380,380,368,360,364,372,388,420,452,476,496,508,504,484,456,424,412,432,464,492,512,512,500,496,496,504,520,548,572,592,608,604,592,568,544,520,516,532,556,576,588,588,572,552,528,512,512,528,548,572,588,584,564,548,540,532,540,572,604,628,640,636,612,568,528,504,496,504,524,544,564,572,564,552,528
2026-03-12 18:38:58,504,500,520,544,572,596,604,596,584,572,552,548,560,584,604,620,624,620,612,596,584,592,608,624,644,672,680,672,660,636,616,608,624,644,668,696,720,736,736,720,692,676,672,672,672,672,672,664,656,644,636,640,652,668,692,720,736,736,732,724,716,724,740,760,792,820,840,848,848,836,824,824,856,896,932,956,952,916,856,800,752,720,712,712,724,736,736,728,720,708,692,692,708,728,744,756,764,764,760,752,748,752,768,788,808,832,856,868,868,860,844,836,836,836,832,824,816,808,808,808,804,796,792,784,788,800,812,824,840,852,868,892,936,1008,1124,1272,1420,1536,1656,1792,1928,2056,2160,2204,2164,2052,1864,1616,1368,1132,920,748,624,536,492,488,516,560,608,656,696,736,796,868,944,1016,1072,1112,1144,1172,1188,1200,1220,1248,1276,1308,1332,1344,1352,1348,1332,1324,1324,1328,1336,1344,1348,1348,1356,1372,1384,1396,1416,1440,1468,1492,1504,1512,1520,1532,1536,1544,1564,1584,1600,1624,1640,1652,1660,1668,1672,1680,1692,1700,1712,1728,1740,1744,1748,1760,1764,1776,1792,1812,1828,1852,1868,1880,1884,1892,1900,1916,1936,1956,1972,1984,1988,1988,2004,2016,2016,2016,2012,2008,2000,1988,1976,1968,1960,1956,1956,1952,1960,1976,1996,2016,2032,2048,2056,2060,2056,2060,2072,2088,2104,2128,2144,2160,2172,2176,2180,2184,2188,2188,2196,2216,2236,2244,2248,2244,2236,2232,2228,2224,2232,2256,2280,2296,2296,2284,2268,2256,2252,2260,2272,2288,2300,2312,2320,2328,2332,2340,2348,2352,2364,2376,2380,2380,2380,2380,2384,2396,2416,2432,2444,2456,2460,2460,2464,2460,2452,2452,2460,2472,2480,2488,2492,2496,2516,2532,2544,2556,2560,2548,2536,2528,2520,2516,2524,2536,2540,2552,2564,2564,2568,2580,2580,2584,2596,2612,2624,2632,2652,2668,2688,2708,2724,2732,2740,2744,2744,2752,2776,2800,2820,2840,2844,2832,2820,2812,2804,2812,2832,2852,2868,2888,2908,2924,2936,2940,2940,2932,2924,2916,2904,2904,2904,2896,2884,2884,2880,2880,2876,2864,2832,2820,2840,2852,2864,2872,2868,2868,2876,2836,2744,2720,2788,2860,2900,2920,2920,2920,2908,2808,2660,2604,2708,2860,2948,2988,2996,3000,2936,2756,2564,2484,2572,2736,2844,2884,2900,2924,2856,2644,2436,2348,2432,2660,2892,3044,3144,3112,2896,2604,2352,2240,2304,2520,2796,3020,3108,3016,2776,2476,2224,2112,2172,2376,2612,2748,2800,2760,2572,2308,2080,1976,2040,2240,2496,2708,2788,2704,2480,2204,1972,1864,1924,2112,2360,2564,2640,2560,2348,2080,1856,1752,1808,1992,2228,2424,2500,2424,2216,1960,1744,1648,1700,1876,2104,2292
2026-03-12 18:38:59,2368,2292,2096,1848,1640,1544,1596,1768,1988,2164,2228,2164,1976,1740,1540,1452,1500,1664,1844,1936,1976,1956,1820,1612,1432,1352,1408,1568,1716,1776,1800,1792,1688,1504,1336,1264,1320,1472,1588,1592,1576,1580,1532,1384,1240,1176,1236,1304,1292,1240,1204,1216,1240,1192,1100,1072,1136,1180,1128,1048,1004,1028,1084,1076,1008,988,1044,1064,1004,920,868,876,948,972,928,920,956,944,868,776,704,696,752,804,808,828,836,760,644,532,468,468,540,632,692,716,688,596,476,364,300,300,368,468,556,596,564,468,336,220,148,148,216,312,392,424,388,288,168,64,8,12,76,168,248,280,240,140,28,-60,-108,-96,-28,56,128,160,128,44,-60,-156,-212,-212,-156,-72,4,44,20,-60,-176,-272,-328,-324,-264,-176,-96,-60,-84,-160,-252,-324,-368,-364,-316,-248,-184,-148,-164,-228,-324,-412,-468,-468,-416,-348,-292,-260,-276,-336,-412,-472,-508,-496,-440,-372,-316,-292,-312,-368,-440,-508,-552,-544,-508,-460,-420,-408,-436,-504,-592,-664,-704,-704,-664,-616,-576,-556,-568,-620,-692,-752,-788,-780,-732,-668,-608,-568,-572,-620,-684,-740,-776,-772,-736,-688,-652,-640,-672,-736,-792,-828,-844,-828,-784,-744,-720,-728,-768,-832,-900,-944,-964,-956,-912,-856,-792,-732,-684,-636,-564,-464,-360,-220,-28,184,376,508,544,452,244,-36,-332,-580,-760,-900,-1020,-1132,-1236,-1324,-1388,-1424,-1424,-1380,-1296,-1204,-1112,-1032,-980,-968,-984,-1008,-1028,-1020,-980,-920,-860,-816,-804,-832,-880,-928,-964,-968,-932,-884,-844,-812,-808,-828,-864,-896,-920,-920,-888,-852,-820,-804,-820,-856,-896,-936,-952,-936,-896,-852,-820,-800,-812,-852,-900,-940,-968,-964,-928,-880,-832,-800,-800,-832,-880,-924,-952,-952,-920,-872,-828,-804,-812,-836,-876,-924,-952,-944,-908,-868,-844,-844,-872,-920,-972,-1016,-1052,-1060,-1028,-972,-920,-888,-884,-912,-952,-992,-1024,-1032,-1004,-960,-912,-876,-860,-880,-924,-968,-996,-996,-968,-924,-884,-856,-856,-876,-904,-936,-956,-956,-928,-892,-856,-828,-816,-828,-852,-884,-912,-920,-900,-868,-832,-800,-788,-808,-844,-872,-888,-876,-836,-784,-748,-732,-740,-780,-832,-872,-892,-892,-868,-828,-788,-760,-756,-776,-804,-824,-836,-828,-800,-764,-732,-704,-688,-696,-712,-728,-748,-764,-764,-756,-744,-736,-740,-760,-780,-796,-808,-808,-796,-784,-768,-764,-780,-808,-840,-868,-884,-880,-852,-824,-796,-772,-772,-788,-816,-844,-860,-860,-828,-784,-748,-728,-736,-772,-816,-860,-896,-912,-896,-864,-824,-796,-796,-824,-868,-904,-928,-932,-904,-864,-820,-788,-776,-792,-820,-860,-892,-904,-892,-876,-860,-852,-864,-896,-932,-960
2026-03-12 18:39:00,-988,-1004,-1000,-988,-972,-956,-964,-992,-1028,-1068,-1096,-1112,-1104,-1080,-1048,-1016,-996,-996,-1004,-1024,-1048,-1052,-1040,-1016,-992,-972,-972,-984,-1000,-1008,-1016,-1016,-1008,-996,-980,-964,-956,-956,-968,-996,-1028,-1056,-1056,-1032,-1004,-980,-968,-972,-980,-976,-952,-876,-740,-584,-432,-284,-128,24,164,272,324,304,216,44,-192,-444,-680,-904,-1108,-1276,-1396,-1456,-1464,-1428,-1368,-1304,-1256,-1220,-1196,-1164,-1128,-1076,-1012,-948,-892,-856,-844,-852,-872,-900,-928,-932,-912,-880,-848,-824,-816,-824,-828,-840,-852,-852,-832,-804,-784,-768,-772,-784,-800,-812,-816,-812,-792,-764,-740,-724,-716,-720,-736,-752,-768,-772,-756,-728,-696,-660,-640,-644,-648,-656,-668,-676,-672,-668,-656,-640,-632,-644,-664,-684,-700,-704,-700,-684,-668,-652,-636,-636,-648,-664,-688,-704,-708,-700,-680,-660,-648,-648,-656,-668,-680,-680,-664,-636,-604,-568,-544,-536,-540,-552,-572,-584,-592,-596,-592,-580,-568,-568,-580,-588,-600,-616,-624,-616,-596,-576,-564,-560,-564,-572,-588,-596,-592,-580,-572,-560,-548,-552,-568,-580,-588,-584,-568,-552,-540,-528,-532,-552,-568,-580,-600,-624,-640,-640,-632,-612,-600,-600,-600,-604,-612,-616,-612,-604,-596,-588,-584,-584,-584,-584,-600,-612,-612,-604,-588,-572,-564,-572,-576,-576,-576,-576,-576,-580,-584,-568,-548,-540,-532,-536,-560,-592,-612,-624,-620,-612,-604,-612,-624,-632,-636,-632,-620,-608,-596,-576,-568,-568,-568,-568,-576,-580,-568,-560,-552,-536,-524,-524,-524,-524,-528,-524,-508,-488,-464,-452,-460,-488,-516,-540,-568,-584,-584,-584,-588,-600,-612,-624,-632,-640,-652,-660,-652,-636,-620,-604,-600,-612,-632,-648,-660,-664,-656,-644,-624,-608,-592,-588,-592,-604,-620,-632,-632,-628,-628,-624,-620,-628,-632,-628,-632,-640,-644,-644,-636,-628,-628,-640,-656,-676,-704,-728,-732,-724,-708,-692,-660,-624,-576,-500,-396,-268,-140,-16,116,276,436,564,644,664,596,452,236,-8,-240,-444,-624,-780,-920,-1040,-1124,-1156,-1152,-1124,-1080,-1024,-968,-920,-868,-812,-768,-724,-684,-652,-628,-608,-592,-592,-604,-612,-620,-624,-616,-604,-584,-560,-536,-520,-508,-500,-496,-500,-496,-492,-488,-468,-444,-428,-428,-440,-464,-488,-504,-512,-500,-480,-468,-456,-444,-452,-476,-488,-484,-472,-452,-424,-404,-400,-404,-416,-432,-444,-448,-444,-436,-412,-388,-372,-368,-384,-416,-444,-460,-464,-456,-436,-420,-412,-404,-396,-396,-408,-412,-420,-428,-424,-416,-420,-428,-440,-456,-472,-476,-472,-464,-448,-428,-420,-420,-424,-436,-448,-460,-468,-468,-460,-452,-452,-452,-456,-464,-468,-460,-444,-424,-404,-392,-392,-392,-396,-412,-428,-436,-436,-428,-416,-400,-384,-376,-384
2026-03-12 18:39:01,-404,-432,-452,-456,-444,-424,-404,-388,-376,-376,-388,-400,-412,-428,-448,-456,-452,-448,-448,-444,-448,-448,-448,-448,-448,-440,-428,-420,-420,-428,-444,-464,-468,-464,-452,-432,-412,-404,-400,-404,-412,-420,-424,-420,-412,-408,-412,-420,-432,-440,-440,-444,-444,-440,-428,-416,-400,-380,-364,-364,-380,-396,-404,-412,-412,-396,-372,-352,-348,-356,-364,-364,-356,-344,-328,-312,-304,-300,-296,-296,-308,-324,-336,-340,-336,-320,-304,-300,-316,-336,-364,-388,-400,-412,-420,-412,-404,-404,-412,-432,-456,-468,-464,-456,-448,-440,-432,-428,-424,-420,-420,-428,-428,-420,-408,-396,-392,-396,-416,-432,-456,-468,-468,-468,-468,-460,-460,-472,-492,-508,-528,-548,-556,-564,-568,-564,-560,-560,-552,-544,-544,-540,-532,-520,-500,-452,-360,-228,-72,72,188,312,460,612,756,864,896,828,656,396,100,-172,-408,-608,-776,-904,-980,-1016,-1012,-980,-956,-928,-896,-856,-800,-724,-656,-608,-572,-552,-544,-536,-524,-504,-484,-456,-424,-404,-400,-408,-440,-468,-484,-484,-480,-460,-436,-420,-408,-412,-428,-452,-468,-480,-484,-480,-472,-460,-452,-448,-456,-464,-460,-456,-452,-440,-424,-416,-404,-396,-400,-412,-416,-416,-412,-404,-404,-408,-408,-412,-424,-424,-416,-400,-388,-376,-372,-384,-400,-416,-428,-440,-440,-436,-436,-428,-420,-412,-412,-412,-420,-428,-436,-440,-440,-432,-416,-408,-412,-424,-440,-452,-452,-452,-444,-432,-428,-428,-424,-420,-424,-428,-424,-420,-424,-416,-408,-396,-392,-400,-416,-436,-444,-448,-444,-424,-408,-400,-400,-408,-416,-424,-420,-412,-404,-388,-372,-368,-372,-380,-400,-424,-440,-448,-448,-440,-424,-416,-416,-412,-416,-412,-400,-380,-364,-356,-360,-380,-396,-412,-428,-432,-412,-392,-380,-364,-344,-340,-344,-352,-368,-384,-388,-384,-376,-356,-336,-324,-320,-324,-344,-364,-368,-360,-344,-320,-300,-288,-284,-288,-296,-300,-304,-308,-304,-292,-276,-260,-240,-228,-232,-248,-264,-284,-292,-288,-276,-268,-256,-256,-264,-272,-272,-268,-260,-240,-224,-216,-212,-212,-220,-232,-240,-244,-244,-232,-220,-216,-224,-240,-268,-292,-292,-276,-256,-244,-244,-264,-296,-328,-360,-380,-380,-372,-364,-356,-340,-328,-324,-320,-324,-332,-336,-340,-336,-324,-312,-304,-288,-260,-240,-228,-224,-236,-256,-272,-284,-292,-300,-312,-332,-352,-372,-380,-376,-356,-332,-316,-308,-292,-280,-244,-164,-40,116,284,440,596,760,920,1056,1148,1164,1092,924,692,444,204,-20,-232,-428,-596,-704,-740,-724,-672,-604,-544,-488,-432,-392,-360,-328,-300,-272,-236,-200,-172,-156,-152,-160,-164,-168,-164,-160,-144,-116,-88,-68,-56,-64,-88,-108,-120,-120,-108,-92,-76,-72,-68
2026-03-12 18:39:02,-72,-76,-76,-60,-36,-4,32,60,80,100,112,112,116,124,136,160,192,220,240,252,256,252,268,296,336,388,440,472,488,480,452,428,420,424,440,476,520,556,580,600,608,608,608,608,612,628,652,664,672,672,664,652,652,660,680,712,740,768,788,800,796,784,772,768,772,792,820,840,860,868,856,844,844,860,876,896,920,936,952,972,984,988,996,1008,1020,1036,1048,1064,1072,1072,1068,1056,1048,1048,1068,1100,1132,1152,1164,1168,1164,1148,1136,1128,1128,1140,1164,1188,1212,1228,1236,1244,1256,1268,1272,1280,1292,1296,1288,1288,1292,1288,1288,1304,1324,1360,1396,1416,1424,1424,1412,1392,1388,1396,1408,1424,1440,1440,1432,1432,1424,1416,1420,1432,1444,1464,1480,1484,1488,1484,1472,1452,1448,1456,1480,1516,1548,1568,1572,1568,1548,1528,1520,1528,1548,1576,1604,1620,1620,1612,1596,1572,1564,1568,1580,1608,1648,1676,1692,1700,1692,1672,1660,1652,1652,1668,1688,1704,1712,1704,1672,1636,1604,1576,1564,1568,1580,1588,1592,1596,1592,1576,1564,1572,1580,1600,1620,1640,1644,1640,1624,1608,1596,1592,1600,1620,1644,1656,1652,1636,1612,1592,1584,1588,1600,1616,1632,1636,1628,1604,1568,1528,1496,1480,1480,1504,1540,1572,1596,1612,1624,1640,1696,1804,1964,2144,2316,2464,2628,2796,2940,3052,3112,3080,2948,2728,2468,2200,1944,1712,1512,1356,1264,1228,1240,1276,1320,1372,1420,1464,1508,1552,1592,1624,1648,1676,1704,1724,1744,1752,1748,1736,1736,1744,1756,1780,1812,1840,1848,1844,1824,1800,1776,1764,1760,1784,1816,1844,1864,1876,1872,1852,1840,1840,1844,1860,1884,1904,1916,1916,1912,1908,1908,1916,1924,1944,1960,1968,1968,1956,1928,1904,1896,1904,1916,1940,1972,2004,2028,2040,2032,2016,2004,1996,1988,1992,2000,2000,1992,1988,1976,1960,1956,1952,1956,1968,1984,2004,2016,2016,1996,1964,1940,1928,1908,1904,1928,1944,1948,1944,1928,1908,1900,1896,1864,1832,1868,1924,1948,1952,1944,1936,1936,1920,1844,1772,1812,1896,1936,1952,1952,1952,1964,1924,1800,1700,1744,1848,1900,1920,1912,1892,1880,1828,1704,1604,1640,1760,1848,1892,1900,1892,1892,1820,1656,1536,1560,1704,1836,1896,1912,1912,1904,1804,1604,1468,1480,1648,1820,1900,1924,1924,1892,1756,1540,1392,1400,1572,1752,1836,1868,1880,1844,1688,1468,1316,1320,1488,1692,1808,1860,1888,1832,1644,1408,1248,1244,1408,1628,1776,1852,1896,1828,1604,1352,1184,1176,1328,1564,1732,1796,1828,1748,1528,1276,1116,1104,1252,1504,1720,1836,1852,1724,1480,1224,1056,1040,1180,1420,1656,1804,1812,1664,1416,1160,992,976,1112,1344,1580,1728,1728,1580,1340,1092,932,916,1044,1268,1492
2026-03-12 18:39:03,1636,1636,1496,1264,1024,872,856,980,1192,1412,1548,1552,1416,1192,964,816,800,920,1124,1336,1468,1472,1340,1128,908,764,748,864,1064,1264,1392,1392,1268,1060,848,712,700,812,1000,1196,1320,1320,1200,1004,800,668,652,760,944,1132,1252,1252,1136,944,752,624,612,712,892,1072,1188,1188,1076,892,704,584,568,560,456,316,208,180,244,344,388,392,452,508,472,388,312,284,324,392,400,388,420,408,308,180,80,40,72,160,236,288,288,208,72,-56,-144,-172,-128,-40,36,72,36,-60,-200,-340,-456,-504,-468,-372,-264,-184,-164,-228,-348,-492,-624,-696,-692,-624,-540,-476,-464,-528,-644,-764,-860,-896,-864,-780,-680,-616,-604,-664,-776,-900,-996,-1040,-1012,-936,-844,-776,-760,-812,-916,-1032,-1128,-1164,-1132,-1052,-968,-912,-924,-1000,-1112,-1240,-1352,-1400,-1376,-1312,-1244,-1192,-1188,-1244,-1336,-1436,-1512,-1544,-1512,-1432,-1344,-1276,-1260,-1308,-1392,-1488,-1564,-1596,-1564,-1492,-1408,-1340,-1316,-1352,-1432,-1520,-1592,-1624,-1608,-1548,-1484,-1432,-1420,-1464,-1548,-1652,-1740,-1788,-1780,-1732,-1672,-1620,-1604,-1636,-1704,-1780,-1844,-1868,-1832,-1748,-1648,-1572,-1544,-1576,-1652,-1752,-1844,-1892,-1880,-1824,-1764,-1716,-1712,-1756,-1832,-1908,-1964,-1984,-1952,-1888,-1812,-1748,-1728,-1756,-1824,-1900,-1960,-1984,-1960,-1900,-1828,-1772,-1756,-1788,-1852,-1924,-1976,-1996,-1968,-1904,-1840,-1788,-1756,-1760,-1808,-1864,-1916,-1944,-1940,-1904,-1856,-1816,-1812,-1856,-1932,-2000,-2052,-2064,-2032,-1972,-1904,-1844,-1812,-1824,-1876,-1936,-1980,-1996,-1960,-1892,-1816,-1752,-1716,-1724,-1764,-1808,-1844,-1856,-1840,-1796,-1744,-1704,-1692,-1720,-1768,-1824,-1876,-1904,-1884,-1824,-1756,-1704,-1680,-1700,-1756,-1816,-1868,-1892,-1872,-1820,-1756,-1692,-1652,-1656,-1700,-1764,-1824,-1864,-1864,-1828,-1772,-1716,-1668,-1652,-1668,-1704,-1736,-1748,-1732,-1688,-1644,-1624,-1636,-1684,-1748,-1800,-1836,-1828,-1776,-1696,-1620,-1572,-1560,-1600,-1668,-1732,-1772,-1784,-1756,-1700,-1624,-1536,-1464,-1440,-1464,-1512,-1556,-1564,-1524,-1456,-1392,-1364,-1380,-1440,-1508,-1536,-1520,-1444,-1300,-1116,-948,-804,-676,-584,-524,-484,-476,-528,-636,-792,-960,-1096,-1212,-1340,-1484,-1620,-1740,-1824,-1852,-1824,-1760,-1680,-1604,-1544,-1496,-1448,-1396,-1332,-1248,-1160,-1080,-1004,-952,-928,-920,-912,-900,-868,-832,-800,-780,-776,-784,-808,-844,-872,-884,-868,-832,-792,-764,-748,-748,-772,-820,-872,-900,-896,-856,-792,-716,-648,-608,-596,-604,-628,-660,-700,-720,-720,-700,-656,-604,-576,-568,-568,-576,-596,-612,-632,-644,-652,-656,-676,-704,-744,-792,-824,-820,-784,-732,-676,-636,-636,-660,-680,-692,-696,-684,-656,-628,-612,-624,-648,-668,-684,-700,-712,-700,-664,-624,-588,-564,-576,-612,-668,-728,-764,-760,-736,-708,-684,-672,-692,-736,-784
2026-03-12 18:39:04,-824,-852,-848,-812,-760,-708,-660,-644,-652,-680,-724,-760,-768,-748,-716,-684,-644,-612,-592,-596,-632,-684,-732,-756,-760,-740,-712,-696,-692,-700,-728,-764,-784,-800,-812,-816,-816,-820,-828,-840,-856,-868,-860,-832,-796,-760,-732,-724,-732,-744,-768,-784,-784,-764,-740,-712,-692,-684,-680,-680,-672,-648,-620,-600,-608,-632,-660,-688,-728,-760,-780,-776,-748,-704,-672,-656,-660,-684,-720,-752,-784,-804,-800,-776,-752,-716,-672,-640,-632,-640,-672,-712,-732,-736,-728,-708,-684,-668,-668,-668,-668,-660,-644,-628,-628,-632,-632,-636,-644,-644,-640,-636,-612,-576,-544,-524,-524,-552,-596,-632,-668,-696,-704,-688,-656,-620,-588,-568,-564,-568,-580,-600,-600,-580,-560,-536,-516,-508,-516,-536,-560,-576,-576,-560,-532,-496,-468,-468,-492,-540,-608,-676,-716,-728,-724,-704,-672,-652,-648,-648,-656,-668,-660,-644,-620,-588,-560,-548,-556,-568,-588,-604,-612,-600,-584,-556,-528,-512,-512,-524,-544,-568,-576,-580,-584,-580,-568,-560,-552,-552,-556,-564,-564,-552,-516,-460,-384,-284,-164,-36,72,180,308,452,584,704,776,756,624,396,120,-144,-380,-580,-736,-852,-928,-968,-976,-944,-900,-864,-820,-780,-736,-680,-624,-580,-548,-532,-532,-536,-532,-516,-492,-460,-428,-408,-404,-408,-416,-424,-424,-408,-392,-372,-348,-340,-344,-356,-376,-388,-384,-372,-356,-332,-296,-264,-240,-232,-252,-292,-340,-380,-404,-404,-388,-376,-376,-380,-396,-408,-412,-404,-388,-368,-344,-328,-328,-332,-340,-352,-356,-340,-316,-292,-268,-256,-260,-272,-288,-308,-320,-316,-304,-284,-264,-256,-264,-276,-292,-308,-312,-304,-288,-272,-252,-248,-256,-276,-300,-324,-336,-332,-316,-296,-272,-264,-272,-284,-300,-316,-324,-312,-292,-264,-240,-228,-236,-244,-256,-268,-272,-268,-260,-240,-224,-220,-228,-244,-268,-288,-300,-296,-284,-268,-252,-248,-252,-260,-276,-292,-296,-288,-276,-256,-232,-216,-216,-224,-240,-260,-268,-260,-244,-220,-196,-184,-180,-188,-208,-224,-232,-228,-220,-204,-188,-180,-180,-188,-200,-220,-224,-216,-200,-180,-160,-148,-156,-176,-200,-220,-228,-220,-208,-192,-168,-160,-160,-168,-184,-208,-220,-220,-216,-204,-188,-176,-180,-188,-204,-228,-244,-240,-232,-220,-200,-192,-188,-192,-208,-228,-236,-236,-228,-212,-192,-180,-180,-180,-188,-200,-204,-196,-188,-168,-148,-132,-128,-136,-148,-164,-176,-176,-176,-164,-148,-140,-140,-140,-152,-172,-180,-180,-176,-172,-160,-156,-156,-164,-184,-212,-232,-244,-248,-244,-232,-232,-236,-244,-264,-292,-308,-308,-304,-288,-268,-256,-256,-268,-280,-296,-304,-300,-296,-284,-268,-256,-256,-260,-268,-284,-296,-300,-296,-280,-252,-236,-232,-236
2026-03-12 18:39:05,-248,-264,-280,-292,-300,-304,-292,-276,-256,-244,-236,-240,-240,-224,-188,-120,-12,116,248,364,472,588,716,844,948,1004,996,892,688,432,180,-52,-240,-392,-508,-584,-616,-616,-596,-564,-532,-500,-464,-416,-360,-296,-232,-184,-156,-140,-136,-148,-152,-152,-144,-132,-112,-96,-88,-92,-108,-128,-136,-128,-108,-88,-64,-44,-36,-32,-40,-56,-64,-64,-56,-40,-24,-12,-12,-12,-16,-28,-36,-32,-28,-16,0,4,8,4,-8,-28,-36,-32,-16,0,20,36,40,36,28,16,12,20,36,56,80,100,108,104,96,76,60,60,64,80,96,112,112,100,76,44,20,8,0,4,16,28,32,36,36,20,8,4,4,16,28,36,28,16,12,0,-8,-4,0,16,40,60,68,64,48,24,0,-20,-36,-32,-12,20,52,68,56,32,24,24,32,44,56,60,44,32,24,8,0,-8,-8,0,16,28,28,20,8,-8,-20,-20,-16,-4,12,24,20,8,-8,-40,-64,-52,-20,16,48,68,68,40,-16,-92,-136,-128,-76,-12,36,60,64,56,48,32,28,32,32,40,56,68,64,52,36,16,4,0,0,0,-16,-44,-64,-52,-20,12,56,80,80,84,100,108,80,28,-16,-32,-8,12,20,24,28,24,12,4,0,-16,-20,0,20,36,48,48,20,-4,-36,-68,-64,-32,-4,20,60,76,72,60,36,0,-24,-8,28,72,92,84,68,60,40,0,-56,-104,-140,-136,-120,-136,-180,-208,-204,-180,-160,-140,-96,-76,-116,-172,-208,-208,-196,-212,-228,-228,-204,-148,-108,-120,-144,-172,-216,-248,-244,-224,-224,-232,-244,-256,-264,-260,-240,-224,-244,-300,-360,-380,-364,-352,-364,-348,-308,-272,-216,-148,-108,-92,-116,-160,-132,-24,104,252,440,632,792,912,988,996,904,688,384,96,-108,-284,-456,-604,-700,-756,-780,-772,-748,-732,-720,-700,-672,-616,-520,-440,-408,-400,-384,-380,-392,-384,-344,-292,-256,-244,-252,-260,-244,-224,-236,-252,-248,-208,-148,-112,-112,-116,-124,-148,-172,-188,-200,-208,-204,-184,-152,-128,-132,-160,-184,-180,-168,-160,-140,-112,-88,-80,-88,-120,-156,-172,-160,-128,-96,-76,-60,-52,-44,-48,-48,-48,-52,-44,-28,-16,-4,0,-4,-20,-36,-44,-44,-36,-16,0,8,8,0,-24,-44,-60,-64,-60,-44,-28,-20,-16,-28,-52,-68,-80,-84,-76,-56,-40,-28,-24,-28,-48,-60,-68,-72,-60,-36,-16,0,4,0,-12,-28,-36,-44,-40,-20,0,12,16,8,-4,-20,-32,-36,-36,-20,-8,-8,-12,-24,-48,-76,-96,-104,-100,-84,-72,-64,-64
2026-03-12 18:39:06,-76,-100,-124,-144,-152,-144,-124,-104,-92,-88,-100,-120,-136,-148,-152,-144,-128,-108,-92,-84,-88,-104,-120,-128,-128,-116,-96,-72,-60,-52,-52,-72,-92,-108,-112,-104,-84,-64,-52,-44,-48,-64,-84,-92,-92,-80,-56,-36,-24,-20,-28,-44,-68,-80,-84,-76,-60,-40,-28,-20,-20,-36,-52,-60,-60,-44,-8,28,56,80,92,92,92,108,124,152,192,232,272,296,308,300,296,308,320,344,380,420,452,480,496,496,496,508,524,548,584,616,644,664,668,660,652,656,664,680,704,732,756,776,780,772,760,760,776,800,840,876,904,920,928,920,912,916,932,956,992,1024,1052,1076,1084,1076,1064,1068,1084,1108,1140,1176,1196,1212,1216,1208,1200,1196,1196,1204,1224,1252,1280,1312,1336,1340,1348,1368,1400,1468,1580,1736,1916,2084,2224,2360,2516,2676,2820,2940,2996,2940,2764,2504,2216,1940,1696,1492,1328,1224,1184,1192,1228,1280,1332,1376,1412,1456,1512,1580,1656,1724,1772,1804,1816,1816,1812,1820,1832,1856,1888,1920,1944,1960,1964,1956,1948,1952,1964,1984,2016,2048,2068,2088,2092,2084,2076,2076,2080,2096,2124,2156,2180,2196,2200,2188,2180,2176,2180,2192,2216,2244,2264,2268,2268,2256,2244,2244,2252,2268,2292,2312,2328,2336,2340,2332,2320,2316,2320,2332,2360,2388,2408,2416,2420,2404,2392,2388,2384,2392,2416,2440,2452,2456,2452,2436,2420,2416,2416,2424,2440,2460,2468,2468,2460,2440,2420,2408,2404,2412,2432,2456,2468,2476,2476,2460,2444,2440,2436,2400,2400,2452,2488,2508,2512,2500,2492,2488,2440,2340,2308,2380,2460,2504,2524,2524,2520,2516,2436,2280,2212,2296,2416,2476,2504,2508,2500,2476,2352,2176,2096,2188,2352,2456,2504,2516,2524,2468,2292,2088,1992,2076,2272,2436,2520,2556,2576,2488,2248,2012,1896,1968,2196,2424,2540,2588,2580,2432,2164,1916,1796,1856,2076,2336,2512,2596,2560,2368,2080,1820,1696,1752,1960,2240,2468,2564,2500,2280,1984,1724,1600,1648,1848,2116,2348,2452,2380,2164,1876,1624,1504,1548,1740,2000,2224,2324,2256,2044,1768,1528,1412,1456,1640,1892,2104,2200,2136,1932,1668,1436,1320,1364,1544,1784,1992,2084,2020,1824,1572,1348,1240,1280,1452,1684,1888,1976,1916,1728,1480,1268,1160,1204,1368,1592,1788,1872,1812,1632,1396,1192,1092,1128,1288,1456,1528,1540,1536,1444,1260,1088,1004,1048,1184,1260,1240,1204,1208,1196,1096,972,912,972,1048,1032,960,896,884,928,924,848,820,864,868,776,652,552,520,564,636,672,700,732,696,600,500,448,488,636,724,700,700,788,976,1180,1328,1416,1408,1260,1048,860,748,600,328,4,-292,-528,-648,-644,-556,-440,-348,-316,-360,-444
2026-03-12 18:39:07,-524,-568,-544,-452,-332,-224,-164,-172,-252,-368,-480,-552,-568,-516,-428,-340,-288,-300,-372,-484,-596,-672,-684,-636,-552,-468,-412,-420,-496,-604,-708,-784,-796,-752,-672,-592,-540,-544,-616,-716,-816,-888,-904,-852,-772,-692,-640,-644,-712,-812,-912,-980,-988,-940,-860,-780,-732,-736,-792,-888,-988,-1060,-1076,-1032,-956,-876,-828,-828,-884,-972,-1064,-1132,-1148,-1108,-1036,-964,-916,-920,-984,-1072,-1160,-1228,-1248,-1208,-1140,-1068,-1024,-1028,-1088,-1176,-1268,-1332,-1348,-1312,-1248,-1184,-1136,-1136,-1188,-1268,-1348,-1400,-1408,-1364,-1292,-1220,-1168,-1160,-1200,-1268,-1340,-1392,-1404,-1364,-1296,-1224,-1176,-1176,-1224,-1296,-1372,-1428,-1440,-1404,-1340,-1280,-1240,-1240,-1284,-1352,-1424,-1476,-1492,-1456,-1392,-1328,-1284,-1284,-1324,-1392,-1460,-1508,-1516,-1480,-1420,-1364,-1316,-1308,-1344,-1400,-1464,-1512,-1524,-1488,-1428,-1368,-1320,-1312,-1348,-1408,-1468,-1516,-1524,-1488,-1432,-1376,-1328,-1316,-1352,-1412,-1472,-1516,-1528,-1500,-1448,-1396,-1352,-1344,-1376,-1428,-1484,-1532,-1540,-1504,-1448,-1388,-1344,-1336,-1364,-1416,-1468,-1504,-1508,-1476,-1420,-1360,-1312,-1300,-1324,-1372,-1420,-1456,-1460,-1428,-1376,-1324,-1276,-1260,-1284,-1328,-1376,-1416,-1428,-1404,-1364,-1316,-1276,-1260,-1276,-1312,-1352,-1384,-1388,-1364,-1324,-1280,-1248,-1240,-1264,-1304,-1352,-1400,-1420,-1408,-1380,-1348,-1320,-1316,-1344,-1392,-1444,-1488,-1504,-1484,-1440,-1396,-1360,-1344,-1364,-1400,-1440,-1472,-1484,-1460,-1420,-1372,-1336,-1320,-1332,-1364,-1404,-1440,-1448,-1428,-1392,-1348,-1308,-1288,-1300,-1332,-1372,-1404,-1416,-1400,-1376,-1348,-1324,-1316,-1328,-1348,-1368,-1384,-1372,-1328,-1256,-1168,-1056,-928,-796,-672,-572,-468,-316,-124,72,240,340,328,168,-108,-444,-780,-1072,-1300,-1472,-1588,-1648,-1672,-1676,-1668,-1652,-1628,-1584,-1516,-1436,-1352,-1272,-1220,-1204,-1220,-1240,-1260,-1260,-1236,-1200,-1156,-1120,-1108,-1116,-1132,-1156,-1176,-1176,-1152,-1116,-1080,-1044,-1032,-1040,-1064,-1092,-1112,-1112,-1096,-1068,-1036,-1004,-984,-988,-1008,-1032,-1056,-1064,-1052,-1024,-992,-960,-944,-948,-968,-992,-1016,-1024,-1012,-980,-948,-912,-892,-896,-912,-932,-952,-960,-948,-924,-892,-864,-852,-856,-872,-892,-916,-924,-916,-892,-864,-836,-820,-828,-852,-876,-904,-924,-920,-900,-880,-856,-844,-848,-872,-896,-924,-940,-936,-916,-896,-872,-864,-868,-884,-904,-928,-936,-924,-900,-868,-832,-812,-808,-816,-828,-844,-844,-828,-804,-772,-736,-712,-712,-724,-744,-768,-780,-776,-760,-736,-708,-692,-692,-708,-732,-756,-772,-768,-748,-724,-696,-680,-680,-696,-716,-740,-752,-744,-720,-692,-664,-644,-644,-656,-672,-692,-700,-696,-676,-656,-632,-612,-616,-628,-644,-664,-680,-680,-664,-644,-616,-600,-596,-608,-628,-652,-664,-664,-652,-636,-612,-600,-600,-612,-628,-648,-660,-656,-644,-628,-604,-592,-592,-600
2026-03-12 18:39:08,-616,-636,-652,-652,-636,-620,-600,-588,-588,-592,-604,-616,-620,-612,-596,-576,-548,-528,-524,-528,-540,-556,-568,-564,-552,-536,-512,-496,-488,-488,-496,-516,-532,-528,-516,-496,-476,-460,-456,-464,-476,-492,-508,-508,-496,-484,-468,-460,-464,-476,-492,-520,-548,-560,-556,-544,-524,-516,-524,-536,-556,-580,-604,-612,-604,-588,-568,-556,-556,-560,-572,-592,-608,-608,-600,-580,-556,-540,-536,-540,-552,-576,-592,-588,-580,-564,-540,-524,-516,-516,-524,-544,-564,-572,-572,-572,-568,-568,-572,-576,-576,-580,-580,-568,-540,-500,-436,-340,-216,-68,76,204,344,524,716,888,1020,1076,1012,828,552,236,-60,-332,-576,-776,-912,-988,-1012,-996,-952,-892,-828,-760,-700,-656,-612,-576,-560,-544,-520,-500,-484,-464,-452,-452,-452,-452,-456,-452,-440,-432,-416,-400,-388,-388,-392,-400,-404,-400,-392,-388,-380,-372,-368,-368,-372,-376,-384,-392,-388,-384,-384,-380,-376,-380,-384,-384,-384,-384,-380,-376,-368,-360,-352,-352,-356,-356,-360,-360,-352,-348,-344,-336,-332,-336,-340,-348,-356,-360,-356,-356,-356,-352,-352,-356,-356,-360,-372,-376,-376,-380,-380,-380,-380,-384,-396,-404,-416,-420,-416,-420,-416,-412,-412,-416,-424,-428,-432,-432,-428,-424,-420,-416,-408,-408,-408,-404,-404,-396,-384,-372,-360,-344,-332,-328,-324,-320,-324,-324,-320,-320,-316,-308,-304,-308,-312,-312,-316,-324,-324,-324,-324,-316,-312,-316,-324,-328,-332,-336,-336,-336,-336,-332,-332,-336,-340,-344,-352,-352,-348,-340,-340,-336,-332,-336,-344,-344,-352,-356,-352,-348,-348,-344,-344,-348,-352,-352,-356,-356,-356,-352,-352,-348,-352,-356,-364,-368,-376,-376,-376,-376,-380,-380,-384,-388,-396,-408,-420,-432,-444,-452,-464,-472,-484,-504,-524,-544,-568,-592,-612,-644,-672,-700,-728,-760,-792,-824,-856,-884,-904,-916,-928,-936,-944,-960,-968,-972,-980,-988,-988,-988,-996,-996,-996,-996,-996,-992,-996,-1000,-1000,-1004,-1008,-1008,-1016,-1028,-1032,-1036,-1040,-1044,-1036,-1032,-1032,-1028,-1032,-1040,-1044,-1048,-1052,-1056,-1056,-1060,-1064,-1068,-1076,-1092,-1112,-1128,-1144,-1160,-1168,-1176,-1184,-1188,-1192,-1204,-1212,-1220,-1236,-1248,-1256,-1260,-1272,-1276,-1284,-1296,-1308,-1320,-1340,-1352,-1356,-1360,-1360,-1360,-1360,-1364,-1372,-1384,-1400,-1416,-1424,-1432,-1440,-1452,-1472,-1504,-1532,-1548,-1560,-1556,-1544,-1536,-1524,-1504,-1480,-1440,-1368,-1256,-1116,-964,-824,-680,-512,-332,-176,-60,-20,-84,-268,-528,-808,-1076,-1320,-1536,-1720,-1864,-1944,-1972,-1956,-1908,-1840,-1768,-1700,-1640,-1588,-1548,-1512,-1480,-1456,-1432,-1404,-1380,-1364,-1352,-1348,-1352,-1356,-1352,-1348,-1332,-1308,-1292,-1276,-1260,-1256,-1256,-1252,-1244,-1236,-1224,-1200,-1176,-1160,-1148,-1136,-1136,-1132,-1124,-1120,-1112
2026-03-12 18:39:09,-1096,-1080,-1064,-1048,-1040,-1036,-1032,-1028,-1024,-1016,-1000,-984,-968,-956,-944,-940,-936,-932,-928,-924,-912,-904,-904,-896,-892,-892,-896,-900,-904,-900,-892,-888,-880,-876,-880,-888,-896,-900,-908,-916,-916,-920,-924,-924,-928,-940,-944,-948,-952,-952,-956,-956,-956,-952,-952,-956,-956,-960,-964,-960,-952,-940,-932,-916,-900,-884,-868,-852,-836,-820,-800,-780,-764,-748,-732,-724,-716,-708,-704,-696,-680,-668,-656,-640,-628,-620,-612,-608,-604,-600,-596,-592,-588,-584,-580,-584,-584,-584,-584,-584,-576,-568,-560,-548,-540,-544,-548,-548,-552,-556,-552,-548,-544,-536,-532,-532,-528,-528,-528,-524,-512,-500,-484,-460,-436,-420,-408,-388,-368,-348,-324,-308,-292,-272,-252,-240,-232,-224,-220,-216,-204,-196,-188,-172,-160,-156,-152,-140,-132,-116,-104,-96,-88,-80,-76,-76,-76,-76,-80,-80,-68,-60,-52,-40,-32,-24,-16,-8,-4,-4,0,4,4,8,12,16,16,24,32,44,64,84,96,116,132,144,152,164,176,184,200,208,220,232,244,248,256,264,264,264,276,284,288,292,304,304,308,308,304,304,308,308,304,304,300,292,284,272,260,244,228,216,204,196,188,180,168,160,152,144,148,156,160,172,180,184,184,188,188,188,200,208,220,232,240,244,244,248,248,252,264,268,276,288,296,300,300,304,304,308,312,308,296,292,288,288,300,316,332,348,376,408,444,508,600,716,852,980,1092,1228,1388,1544,1672,1760,1772,1672,1464,1188,900,636,404,200,24,-92,-160,-180,-156,-108,-48,8,64,108,148,192,224,248,272,292,308,320,336,344,340,336,336,332,332,344,356,364,380,388,388,384,380,376,380,384,388,392,400,396,388,384,384,380,376,380,376,376,376,380,380,384,384,376,372,372,372,368,368,368,360,360,356,352,348,352,360,360,368,368,368,368,364,356,356,360,360,360,364,356,348,340,328,308,296,288,272,256,252,248,236,228,216,196,184,172,160,148,140,140,136,132,128,124,120,120,112,112,120,128,132,140,144,148,156,164,164,164,172,180,184,196,208,208,204,204,204,200,200,204,200,196,200,200,200,208,212,220,232,248,256,268,280,292,300,308,316,320,332,340,348,364,376,384,400,416,432,448,472,484,496,504,512,512,512,512,504,500,500,504,504,512,520,524,524,524,524,524,520,516,512,516,520,520,520,524,520,512,516,516,516,520,524,528,528,532,532,536,548,560,568,576,584,588,596,604,612,620
2026-03-12 18:39:10,636,648,656,664,676,680,680,684,692,700,716,724,728,736,748,752,756,764,768,772,784,796,800,808,816,820,828,832,832,832,840,844,848,852,864,868,872,880,884,888,896,896,896,904,912,908,900,900,892,884,884,884,884,884,884,872,860,848,832,816,804,796,792,792,792,784,780,772,764,760,760,756,756,756,756,748,744,740,732,720,720,716,712,716,724,720,712,712,708,708,708,704,696,684,672,652,644,648,652,664,688,708,728,760,808,880,980,1104,1224,1328,1444,1592,1748,1896,2004,2044,2004,1864,1632,1364,1112,872,652,460,304,188,128,120,148,200,264,324,372,416,456,488,524,552,576,596,612,628,632,640,644,636,632,640,644,648,660,676,684,688,688,684,680,680,684,688,704,716,724,728,728,720,712,708,704,708,716,716,712,708,704,692,684,684,680,680,688,692,696,704,708,704,704,704,704,704,712,720,724,728,728,724,716,716,712,708,708,712,716,716,716,708,700,688,676,664,660,660,656,656,656,648,640,632,628,620,620,620,612,604,600,592,588,584,576,572,576,576,576,580,584,580,576,576,580,580,588,596,604,612,624,624,628,632,632,640,656,668,672,684,700,704,712,716,716,720,728,732,732,740,748,744,744,744,740,732,732,732,732,736,736,732,724,724,724,720,720,720,716,716,716,708,700,692,684,676,680,680,676,672,668,660,656,648,640,632,628,628,628,628,624,616,608,608,600,596,596,596,596,600,608,604,596,592,584,576,576,580,584,584,588,588,580,576,568,560,560,560,564,568,568,564,560,564,560,556,556,560,564,568,576,580,584,588,584,584,588,600,604,612,616,616,616,620,612,608,612,616,616,616,620,616,608,604,600,600,604,608,612,616,624,628,628,628,616,604,604,604,596,596,592,580,560,544,532,520,516,508,496,488,484,472,464,460,456,448,444,444,444,444,448,444,444,440,432,428,428,428,424,424,428,428,424,420,416,412,420,424,424,428,432,428,412,392,368,348,336,340,348,364,384,396,416,452,504,592,716,864,1000,1140,1300,1480,1652,1804,1896,1900,1788,1572,1284,988,708,444,216,32,-80,-132,-128,-92,-36,32,104,160,208,240,260,276,296,312,328,348,364,368,360,348,332,320,316,320,328,344,360,364,360,352,336,328,328,332,336,348,356,356,348,340,328,320
2026-03-12 18:39:11,320,320,320,328,336,336,332,324,312,300,296,300,296,300,308,308,300,292,280,272,272,272,276,280,288,280,272,264,256,248,244,248,248,252,256,252,244,240,228,216,212,212,216,220,220,212,200,192,180,164,160,160,160,160,168,168,164,164,156,152,152,160,168,180,188,192,200,208,216,224,240,252,264,280,292,300,304,312,316,316,324,336,340,352,360,364,364,364,360,360,368,376,376,380,384,384,380,376,368,356,352,356,356,360,364,360,352,348,344,340,344,348,352,352,360,360,364,368,368,360,364,368,368,372,376,372,368,364,356,348,348,352,352,352,356,348,344,340,332,324,320,316,312,312,312,308,300,296,288,276,268,268,264,260,264,264,256,256,248,244,236,232,228,228,228,220,212,208,200,188,184,184,184,188,188,184,180,176,176,172,180,184,184,188,196,200,196,200,196,196,204,204,204,212,220,224,224,232,232,228,228,228,228,232,240,240,240,248,256,260,268,280,280,280,284,280,276,276,268,252,248,240,232,224,216,208,196,188,172,156,148,148,148,148,148,148,144,144,140,140,136,140,140,144,152,148,144,140,136,128,132,132,128,136,140,136,132,128,120,112,108,104,92,72,60,44,36,40,44,52,68,92,120,168,244,352,488,636,772,916,1092,1280,1444,1568,1616,1548,1356,1076,772,480,216,-16,-220,-372,-452,-476,-464,-424,-372,-316,-260,-216,-180,-152,-132,-124,-120,-116,-112,-112,-112,-116,-128,-140,-148,-156,-164,-164,-160,-160,-156,-156,-168,-176,-192,-208,-220,-224,-220,-220,-216,-220,-228,-236,-244,-256,-264,-264,-268,-272,-276,-276,-280,-288,-292,-300,-312,-316,-320,-328,-328,-328,-336,-340,-344,-352,-360,-368,-380,-388,-392,-392,-396,-396,-392,-396,-404,-408,-416,-428,-432,-436,-448,-456,-464,-476,-488,-496,-508,-524,-536,-548,-564,-580,-592,-608,-624,-640,-660,-676,-684,-688,-700,-708,-716,-728,-740,-744,-748,-756,-760,-760,-760,-760,-756,-756,-756,-752,-748,-748,-744,-744,-748,-752,-756,-760,-764,-772,-780,-788,-792,-792,-796,-800,-808,-816,-824,-832,-840,-852,-852,-852,-852,-852,-848,-852,-860,-864,-872,-884,-884,-888,-888,-888,-888,-888,-888,-888,-896,-904,-908,-908,-908,-908,-904,-908,-920,-924,-928,-936,-932,-928,-932,-940,-948,-964,-984,-1000,-1020,-1040,-1052,-1060,-1076,-1088,-1096,-1104,-1116,-1124,-1136,-1148,-1156,-1160,-1168,-1172,-1172,-1176,-1180,-1188,-1200,-1212,-1216,-1220,-1224,-1228,-1232,-1236,-1244,-1252,-1260,-1276
2026-03-12 18:39:12,-1280,-1280,-1284,-1284,-1284,-1288,-1296,-1300,-1312,-1324,-1328,-1328,-1328,-1328,-1328,-1328,-1336,-1340,-1344,-1348,-1352,-1348,-1348,-1344,-1332,-1332,-1328,-1324,-1320,-1320,-1316,-1308,-1300,-1292,-1280,-1276,-1272,-1268,-1264,-1256,-1244,-1228,-1220,-1220,-1216,-1216,-1220,-1216,-1216,-1216,-1208,-1204,-1200,-1192,-1184,-1180,-1176,-1180,-1188,-1196,-1196,-1192,-1192,-1192,-1192,-1200,-1208,-1212,-1224,-1236,-1240,-1236,-1236,-1236,-1236,-1236,-1232,-1228,-1228,-1232,-1228,-1224,-1220,-1220,-1212,-1212,-1216,-1212,-1208,-1204,-1196,-1192,-1188,-1184,-1176,-1176,-1180,-1180,-1180,-1184,-1180,-1172,-1168,-1164,-1156,-1156,-1164,-1172,-1188,-1204,-1204,-1192,-1176,-1152,-1128,-1100,-1072,-1028,-976,-896,-772,-616,-456,-312,-156,8,176,328,436,468,396,212,-44,-316,-564,-796,-1012,-1192,-1328,-1412,-1432,-1408,-1364,-1296,-1228,-1168,-1124,-1080,-1044,-1028,-1008,-984,-960,-940,-920,-916,-920,-928,-940,-956,-956,-948,-944,-936,-924,-920,-928,-936,-948,-960,-960,-956,-952,-944,-936,-940,-948,-960,-972,-980,-984,-980,-976,-968,-956,-952,-956,-964,-980,-992,-996,-988,-984,-980,-972,-976,-980,-980,-980,-980,-980,-980,-976,-968,-956,-948,-952,-960,-964,-972,-972,-964,-960,-952,-940,-940,-940,-940,-944,-948,-952,-948,-948,-948,-944,-948,-956,-960,-964,-972,-968,-960,-952,-948,-940,-932,-932,-932,-932,-932,-924,-912,-904,-892,-876,-864,-856,-848,-844,-840,-832,-816,-808,-796,-784,-772,-768,-760,-752,-748,-740,-728,-720,-708,-692,-684,-688,-688,-688,-692,-688,-680,-680,-680,-672,-672,-676,-672,-668,-672,-668,-664,-664,-656,-652,-652,-656,-656,-656,-656,-652,-648,-640,-632,-620,-616,-620,-620,-620,-620,-616,-616,-612,-608,-596,-592,-592,-592,-596,-600,-600,-596,-596,-596,-592,-592,-596,-604,-608,-612,-608,-600,-596,-592,-588,-584,-584,-584,-588,-592,-592,-584,-584,-580,-572,-564,-564,-564,-564,-564,-560,-552,-544,-536,-524,-516,-512,-504,-496,-496,-488,-472,-464,-456,-444,-436,-436,-432,-428,-424,-416,-408,-400,-396,-388,-384,-376,-368,-360,-356,-344,-324,-316,-300,-280,-264,-252,-240,-224,-216,-208,-192,-180,-168,-160,-148,-140,-128,-128,-132,-120,-108,-96,-84,-68,-60,-48,-36,-28,-28,-16,0,4,12,24,32,36,44,44,40,40,44,44,48,52,56,60,64,68,64,68,76,84,92,108,112,112,120,124,120,124,136,140,144,156,156,152,152,152,152,160,168,168,176,184,192,188,188,192,196,196,196,184,180,176,172,176,188,204,216,236,264,300,352,436,544,680,828,956,1088,1252,1424,1580,1696,1748,1692,1516,1264,984,724,488,280,108,-16,-84,-104,-88,-40,20,80,144,200,248,288,328,356,376,396,420,436
2026-03-12 18:39:13,452,464,464,464,464,464,472,488,504,512,524,536,544,548,560,568,576,588,604,620,636,640,644,644,648,656,660,668,676,680,688,696,700,700,708,712,716,724,728,728,736,744,748,752,760,764,760,768,780,784,792,800,800,804,816,824,824,832,840,844,852,860,868,872,880,884,880,884,888,888,892,892,892,892,896,896,888,888,884,880,880,888,892,896,904,908,912,924,936,948,960,976,988,1004,1024,1036,1044,1052,1056,1060,1080,1096,1108,1120,1140,1156,1160,1168,1176,1180,1184,1184,1184,1188,1192,1192,1192,1188,1184,1180,1180,1180,1180,1180,1180,1176,1168,1168,1164,1156,1152,1152,1152,1152,1156,1156,1152,1152,1148,1144,1144,1144,1144,1148,1148,1148,1140,1136,1136,1128,1124,1124,1120,1112,1108,1104,1092,1088,1080,1072,1064,1064,1060,1052,1048,1044,1032,1020,1012,996,988,984,976,968,968,964,956,948,940,932,928,924,916,912,908,900,884,876,864,856,852,852,848,844,844,840,832,824,816,800,792,788,784,780,780,776,764,760,756,748,744,748,748,748,752,748,744,740,736,728,724,724,720,720,724,724,720,712,708,700,696,692,688,684,684,684,672,664,656,644,636,624,612,604,592,576,556,536,512,480,452,432,408,392,376,356,336,316,296,276,264,260,260,260,264,260,252,244,236,224,220,224,228,228,228,228,220,220,212,204,204,208,204,200,200,196,188,180,176,164,152,140,124,112,116,124,136,152,168,184,208,244,288,364,468,584,688,780,884,1012,1152,1268,1344,1356,1292,1132,896,644,404,172,-36,-212,-356,-456,-504,-516,-496,-452,-400,-356,-316,-276,-240,-204,-164,-132,-112,-100,-96,-96,-100,-100,-112,-116,-120,-120,-124,-120,-116,-112,-116,-116,-120,-116,-112,-108,-104,-100,-92,-92,-96,-96,-104,-112,-108,-108,-108,-100,-92,-88,-84,-80,-76,-72,-64,-56,-52,-44,-36,-36,-36,-32,-24,-20,-16,-16,-12,-8,-4,-4,-4,0,0,0,0,0,0,0,0,-4,-4,-4,0,0,0,4,0,0,0,-4,-4,0,0,0,0,0,-8,-12,-16,-20,-24,-20,-20,-16,-12,-8,-4,-4,-4,-4,-4,0,8,20,36,44,48,56,64,68,72,84,88,96,108,116,124,128,132,132,136,144,144,144,144,140,136,132,128,120,116,112,112,104,108,108,104,100,96,88,88,88,92,92,100,104,100,100,104,104,104,112,116,116,128,132,128,128,128,128,128,128,132,132,132,132,132,128,128,120
2026-03-12 18:39:14,116,112,112,108,112,108,100,88,80,72,68,68,64,64,64,60,56,52,52,48,44,44,40,40,44,44,40,40,40,32,28,36,40,40,40,40,40,44,44,48,52,60,68,72,84,92,88,92,92,84,84,88,92,96,104,104,96,88,76,68,68,72,76,84,92,96,96,96,92,84,76,72,68,64,64,60,44,24,8,-12,-28,-36,-44,-56,-64,-68,-80,-84,-88,-92,-92,-92,-96,-96,-92,-92,-100,-108,-112,-120,-124,-120,-116,-112,-104,-100,-104,-104,-104,-108,-108,-104,-100,-100,-96,-100,-108,-116,-128,-152,-172,-180,-184,-176,-156,-140,-128,-112,-92,-56,0,100,232,372,500,632,788,956,1116,1236,1292,1256,1100,848,564,288,28,-208,-412,-572,-672,-704,-688,-644,-580,-512,-456,-404,-360,-328,-304,-280,-260,-244,-220,-204,-200,-200,-208,-224,-236,-236,-232,-220,-204,-192,-188,-192,-200,-212,-220,-224,-224,-216,-200,-192,-192,-188,-188,-196,-200,-200,-200,-192,-180,-168,-160,-156,-156,-160,-172,-172,-172,-168,-156,-152,-152,-152,-156,-168,-172,-172,-168,-168,-160,-160,-164,-168,-172,-184,-192,-192,-196,-200,-196,-192,-196,-200,-208,-220,-232,-236,-236,-240,-236,-240,-252,-260,-268,-280,-288,-288,-288,-292,-292,-296,-300,-304,-312,-320,-320,-316,-316,-312,-300,-296,-296,-292,-288,-292,-292,-280,-268,-260,-248,-236,-228,-224,-220,-224,-224,-220,-212,-208,-200,-196,-200,-200,-204,-212,-220,-216,-216,-216,-212,-212,-220,-224,-228,-232,-240,-244,-248,-252,-252,-256,-264,-272,-276,-284,-288,-288,-292,-296,-296,-296,-300,-300,-304,-316,-324,-324,-324,-328,-324,-324,-328,-332,-332,-336,-336,-332,-328,-332,-328,-332,-340,-352,-360,-372,-380,-380,-380,-380,-376,-376,-384,-388,-392,-396,-400,-396,-396,-392,-388,-388,-392,-392,-396,-404,-404,-404,-404,-404,-396,-392,-392,-396,-400,-404,-400,-392,-384,-372,-360,-352,-344,-336,-332,-332,-328,-316,-308,-304,-296,-288,-288,-288,-280,-280,-276,-272,-268,-268,-268,-268,-276,-280,-280,-288,-288,-284,-284,-280,-280,-280,-288,-300,-308,-320,-332,-340,-356,-372,-380,-392,-408,-424,-436,-452,-464,-476,-484,-492,-492,-496,-508,-516,-520,-528,-532,-528,-532,-536,-540,-544,-548,-552,-556,-568,-572,-572,-572,-576,-568,-568,-576,-580,-588,-596,-596,-592,-592,-600,-612,-628,-652,-672,-680,-680,-676,-660,-648,-636,-608,-568,-516,-432,-308,-164,-20,120,280,460,636,788,880,880,764,540,264,-8,-264,-504,-708,-880,-1000,-1052,-1060,-1040,-996,-928,-864,-812,-764,-724,-700,-680,-668,-656,-644,-624,-612,-604,-600,-608,-620,-632,-640,-640
2026-03-12 18:39:15,-632,-620,-608,-604,-600,-608,-620,-628,-628,-636,-636,-628,-620,-624,-624,-632,-648,-656,-664,-668,-664,-656,-652,-656,-660,-664,-672,-680,-684,-684,-684,-676,-668,-668,-664,-664,-672,-676,-684,-692,-696,-688,-684,-684,-684,-684,-692,-700,-704,-716,-720,-720,-720,-724,-724,-728,-740,-748,-756,-768,-772,-776,-780,-788,-788,-792,-800,-808,-812,-820,-820,-816,-816,-824,-820,-820,-828,-832,-832,-832,-832,-820,-812,-804,-796,-788,-788,-784,-780,-776,-772,-760,-752,-748,-736,-728,-732,-732,-732,-736,-736,-736,-732,-732,-728,-724,-728,-732,-736,-740,-740,-736,-732,-732,-724,-720,-724,-728,-732,-740,-744,-740,-740,-740,-740,-740,-744,-748,-748,-752,-752,-744,-736,-728,-720,-708,-708,-704,-704,-708,-708,-700,-696,-692,-684,-680,-684,-688,-688,-696,-700,-700,-700,-704,-700,-692,-692,-692,-688,-692,-696,-696,-692,-692,-688,-688,-692,-696,-700,-708,-712,-712,-708,-712,-708,-708,-716,-720,-720,-724,-724,-724,-724,-724,-720,-716,-716,-716,-708,-708,-704,-692,-680,-672,-664,-652,-644,-640,-636,-640,-640,-628,-620,-616,-604,-596,-596,-604,-604,-608,-616,-612,-608,-608,-600,-592,-588,-588,-592,-596,-604,-604,-608,-608,-608,-608,-620,-632,-644,-656,-668,-676,-684,-692,-692,-696,-708,-720,-724,-732,-732,-732,-728,-732,-724,-720,-720,-720,-716,-716,-716,-712,-704,-696,-688,-684,-692,-692,-692,-692,-688,-676,-668,-664,-656,-648,-644,-644,-648,-652,-660,-668,-684,-692,-692,-676,-664,-652,-640,-636,-624,-592,-540,-464,-344,-196,-48,84,236,408,572,716,816,828,732,532,268,0,-240,-472,-676,-836,-952,-1012,-1020,-1000,-960,-908,-852,-804,-756,-708,-664,-636,-604,-576,-556,-536,-520,-520,-520,-520,-520,-516,-504,-492,-480,-464,-452,-448,-448,-444,-444,-440,-436,-428,-420,-416,-412,-416,-416,-416,-416,-416,-412,-404,-400,-396,-388,-388,-392,-388,-388,-388,-384,-380,-380,-380,-376,-380,-380,-380,-380,-380,-376,-372,-372,-368,-360,-364,-368,-364,-364,-364,-360,-352,-352,-356,-360,-368,-372,-368,-368,-372,-372,-372,-376,-380,-384,-392,-400,-404,-408,-412,-412,-416,-420,-428,-428,-432,-436,-432,-432,-436,-432,-428,-424,-420,-420,-420,-420,-412,-404,-400,-384,-372,-364,-356,-348,-348,-340,-328,-320,-316,-304,-288,-284,-284,-280,-280,-276,-272,-268,-264,-256,-256,-260,-260,-260,-264,-264,-260,-260,-260,-252,-248,-244,-240,-240,-244,-240,-232,-224,-216,-204,-196,-192,-184,-180,-176,-168,-156,-140,-132,-116,-104,-96,-88,-76,-68,-56,-48,-36,-28,-16,-8,-4,0,0,4,12,28,40,52,64,80,88,88,92,92,92,96,104,108,120,128,132,132,136,136
2026-03-12 18:39:16,136,140,144,144,152,156,152,152,148,144,140,144,144,144,148,152,152,156,168,172,180,192,204,212,228,248,256,268,276,280,280,292,304,316,324,336,340,344,348,344,344,352,356,360,376,388,392,400,404,400,400,408,416,420,428,432,428,420,416,408,400,396,396,392,388,384,372,364,364,360,364,368,372,372,376,376,376,376,376,376,380,388,396,400,404,412,412,412,416,416,416,420,424,428,436,440,436,432,428,416,404,388,376,372,388,408,428,456,484,516,564,636,732,860,1024,1196,1352,1512,1692,1868,2024,2152,2200,2132,1960,1720,1476,1256,1048,860,700,584,520,504,528,576,632,688,740,784,828,872,912,948,980,1008,1028,1040,1044,1036,1032,1032,1036,1040,1056,1076,1096,1108,1120,1120,1124,1128,1136,1148,1164,1184,1208,1224,1244,1252,1256,1272,1292,1304,1324,1340,1352,1360,1368,1368,1368,1376,1384,1392,1408,1420,1428,1428,1428,1424,1412,1412,1416,1416,1420,1424,1428,1428,1432,1428,1424,1428,1428,1428,1428,1432,1424,1420,1416,1408,1396,1392,1388,1380,1388,1396,1396,1392,1388,1380,1376,1376,1372,1368,1368,1372,1372,1372,1372,1364,1360,1364,1368,1368,1372,1380,1380,1384,1388,1392,1400,1416,1432,1444,1456,1468,1480,1484,1488,1484,1488,1496,1500,1504,1512,1520,1524,1528,1532,1528,1528,1536,1544,1548,1560,1568,1572,1576,1580,1580,1580,1592,1596,1600,1608,1620,1620,1624,1628,1628,1632,1640,1648,1656,1668,1684,1688,1692,1696,1700,1700,1708,1716,1720,1728,1732,1728,1728,1728,1720,1716,1720,1724,1724,1728,1736,1736,1740,1748,1752,1760,1772,1780,1784,1792,1804,1804,1800,1792,1788,1780,1784,1784,1784,1788,1796,1796,1796,1796,1788,1784,1784,1784,1780,1788,1792,1792,1792,1788,1788,1788,1796,1804,1808,1816,1832,1832,1840,1852,1856,1860,1872,1880,1892,1908,1924,1928,1928,1932,1932,1932,1940,1948,1948,1956,1964,1956,1952,1952,1944,1940,1944,1948,1948,1952,1960,1956,1952,1948,1940,1932,1932,1932,1928,1928,1924,1912,1900,1888,1876,1864,1864,1860,1856,1852,1856,1856,1856,1856,1852,1852,1856,1860,1860,1864,1864,1860,1860,1860,1860,1856,1856,1860,1860,1868,1876,1876,1872,1876,1872,1872,1876,1884,1884,1888,1892,1888,1876,1856,1840,1824,1828,1840,1852,1868,1888,1900,1920,1952,2008,2096,2224,2368,2500,2628,2780,2844,2816,2860,3004,3096,3028,2832,2576,2336,2124,1932,1764,1620,1500,1424,1400,1416,1464,1536,1612,1676,1732,1784,1820,1844,1864,1884,1900,1932,1960,1980,1988,1992,1984,1976,1976,1984,1996,2016,2036,2052,2056,2060,2052,2044,2036,2040,2044,2060,2080,2096,2104,2108,2108
2026-03-12 18:39:17,2100,2108,2124,2136,2160,2184,2176,2136,2144,2184,2200,2212,2224,2236,2252,2276,2220,2112,2100,2168,2220,2248,2260,2276,2304,2296,2188,2052,2028,2124,2224,2264,2280,2300,2340,2308,2156,2004,1964,2072,2204,2256,2276,2292,2336,2284,2108,1952,1900,1992,2128,2196,2212,2228,2256,2196,2028,1880,1836,1916,2052,2132,2148,2176,2192,2116,1956,1820,1772,1836,1984,2092,2116,2156,2160,2052,1900,1772,1720,1772,1892,2008,2068,2100,2076,1968,1828,1712,1668,1704,1800,1912,1992,2016,1972,1868,1752,1656,1616,1636,1708,1796,1860,1880,1840,1756,1664,1588,1552,1568,1620,1684,1736,1748,1716,1652,1576,1516,1488,1496,1536,1584,1620,1632,1604,1552,1492,1444,1420,1428,1456,1492,1520,1524,1504,1464,1416,1376,1356,1356,1376,1404,1424,1428,1412,1376,1340,1304,1288,1288,1300,1320,1332,1336,1320,1296,1264,1240,1224,1220,1228,1244,1256,1256,1240,1220,1192,1172,1160,1156,1164,1172,1180,1176,1168,1148,1128,1108,1100,1096,1100,1104,1108,1108,1100,1084,1068,1052,1040,1036,1040,1012,948,944,984,992,988,976,968,968,956,856,716,668,744,832,860,868,872,888,812,612,424,356,444,600,688,720,744,736,612,396,208,132,200,380,520,568,608,576,412,196,20,-48,-4,136,292,388,416,344,184,0,-148,-220,-188,-84,32,108,112,24,-124,-272,-380,-420,-380,-280,-168,-72,-24,-24,-40,-44,-16,44,168,312,368,344,372,504,576,456,216,-52,-268,-424,-552,-680,-828,-996,-1164,-1292,-1364,-1368,-1304,-1196,-1084,-992,-940,-940,-972,-1020,-1060,-1072,-1044,-984,-932,-900,-892,-928,-996,-1060,-1108,-1128,-1112,-1072,-1032,-1008,-1012,-1044,-1100,-1152,-1188,-1208,-1196,-1164,-1132,-1112,-1116,-1144,-1184,-1224,-1256,-1268,-1256,-1228,-1208,-1196,-1192,-1212,-1248,-1280,-1300,-1312,-1308,-1288,-1268,-1256,-1256,-1272,-1300,-1328,-1352,-1368,-1364,-1352,-1340,-1332,-1332,-1344,-1368,-1392,-1400,-1400,-1388,-1364,-1344,-1328,-1316,-1320,-1328,-1332,-1328,-1324,-1316,-1304,-1296,-1296,-1296,-1308,-1328,-1344,-1356,-1364,-1364,-1356,-1352,-1344,-1348,-1352,-1360,-1368,-1368,-1368,-1356,-1344,-1340,-1336,-1336,-1340,-1348,-1348,-1344,-1340,-1328,-1312,-1304,-1300,-1296,-1296,-1300,-1300,-1304,-1308,-1304,-1300,-1300,-1300,-1300,-1308,-1320,-1328,-1332,-1340,-1336,-1336,-1336,-1340,-1344,-1356,-1368,-1372,-1372,-1372,-1372,-1372,-1372,-1376,-1380,-1384,-1392,-1396,-1396,-1396,-1396,-1392,-1392,-1392,-1392,-1396,-1404,-1404,-1404,-1408,-1408,-1404,-1404,-1408,-1408,-1416,-1424,-1424,-1420,-1420,-1412,-1408,-1412,-1416,-1420,-1428,-1436,-1440,-1440,-1444,-1448,-1448,-1456,-1464,-1468,-1476,-1484,-1484,-1484,-1488,-1488,-1484,-1484,-1492,-1492,-1496,-1496,-1492,-1484,-1484,-1480,-1472,-1472,-1472,-1472,-1472,-1472,-1472,-1468,-1472,-1468,-1460,-1456,-1456,-1456,-1456
2026-03-12 18:39:18,-1456,-1456,-1452,-1448,-1444,-1436,-1436,-1436,-1432,-1432,-1436,-1432,-1424,-1424,-1424,-1424,-1432,-1436,-1440,-1444,-1460,-1468,-1480,-1492,-1500,-1500,-1508,-1516,-1520,-1528,-1536,-1540,-1540,-1540,-1536,-1536,-1540,-1548,-1552,-1556,-1564,-1568,-1564,-1564,-1564,-1556,-1560,-1564,-1568,-1568,-1572,-1572,-1568,-1564,-1552,-1540,-1540,-1544,-1544,-1544,-1544,-1544,-1540,-1536,-1540,-1548,-1564,-1572,-1572,-1564,-1548,-1524,-1504,-1480,-1448,-1400,-1340,-1252,-1128,-984,-852,-720,-564,-384,-216,-72,8,4,-100,-316,-600,-880,-1136,-1376,-1580,-1744,-1864,-1924,-1928,-1900,-1852,-1780,-1708,-1648,-1596,-1548,-1512,-1484,-1460,-1436,-1412,-1384,-1360,-1352,-1344,-1344,-1344,-1348,-1340,-1328,-1312,-1288,-1268,-1252,-1236,-1224,-1220,-1216,-1212,-1204,-1196,-1180,-1168,-1164,-1160,-1156,-1156,-1160,-1156,-1156,-1152,-1136,-1120,-1112,-1104,-1100,-1104,-1104,-1100,-1096,-1092,-1080,-1068,-1056,-1044,-1032,-1028,-1024,-1020,-1012,-1004,-992,-972,-964,-952,-944,-940,-940,-932,-928,-928,-916,-908,-900,-892,-884,-884,-888,-888,-888,-892,-888,-880,-880,-876,-872,-876,-888,-892,-900,-908,-904,-896,-896,-896,-892,-896,-900,-900,-904,-904,-896,-888,-880,-868,-852,-840,-832,-820,-808,-796,-776,-756,-740,-720,-700,-688,-680,-676,-672,-668,-660,-652,-640,-628,-616,-612,-608,-600,-600,-600,-592,-584,-580,-572,-564,-560,-560,-560,-560,-560,-552,-544,-540,-536,-528,-528,-528,-524,-528,-532,-524,-516,-516,-508,-496,-492,-496,-496,-500,-504,-500,-492,-488,-484,-476,-472,-476,-476,-476,-480,-476,-476,-472,-468,-468,-468,-472,-472,-476,-480,-480,-480,-480,-480,-472,-476,-480,-484,-488,-492,-492,-488,-492,-496,-496,-496,-496,-500,-500,-504,-500,-496,-488,-484,-476,-472,-472,-472,-472,-476,-468,-460,-460,-460,-452,-452,-452,-456,-456,-464,-460,-456,-456,-456,-456,-456,-460,-464,-468,-468,-464,-460,-456,-456,-452,-456,-468,-476,-488,-496,-500,-508,-520,-528,-536,-552,-572,-584,-600,-608,-616,-624,-632,-636,-636,-644,-652,-660,-668,-676,-680,-684,-688,-688,-688,-692,-700,-704,-712,-724,-728,-728,-732,-728,-724,-724,-732,-736,-744,-752,-756,-756,-760,-764,-764,-780,-800,-824,-848,-864,-860,-848,-836,-816,-796,-772,-744,-692,-608,-488,-336,-184,-36,124,312,484,628,716,712,584,352,64,-232,-516,-776,-1012,-1196,-1312,-1364,-1360,-1320,-1260,-1192,-1124,-1060,-1012,-976,-956,-948,-940,-932,-912,-896,-880,-868,-872,-884,-900,-912,-920,-916,-904,-884,-868,-856,-860,-872,-884,-892,-896,-888,-876,-864,-852,-844,-848,-856,-860,-864,-868,-864,-852,-840,-832,-820,-820,-828,-832,-836,-840,-836,-832,-828,-820,-816,-816,-824,-832,-840,-848,-848,-844,-840,-832,-828,-832,-844,-852,-864,-872,-876,-876,-876,-876,-872,-880,-888,-900,-912
2026-03-12 18:39:19,-924,-932,-932,-936,-940,-940,-948,-964,-976,-988,-1004,-1008,-1008,-1016,-1016,-1012,-1016,-1028,-1032,-1040,-1048,-1052,-1048,-1048,-1048,-1040,-1040,-1044,-1040,-1040,-1044,-1044,-1036,-1028,-1024,-1016,-1016,-1020,-1020,-1024,-1032,-1032,-1024,-1028,-1032,-1032,-1036,-1044,-1052,-1060,-1068,-1072,-1076,-1076,-1076,-1076,-1076,-1084,-1092,-1104,-1116,-1116,-1112,-1112,-1108,-1104,-1108,-1116,-1120,-1124,-1132,-1128,-1120,-1116,-1108,-1096,-1092,-1096,-1096,-1096,-1100,-1096,-1092,-1088,-1084,-1076,-1076,-1084,-1088,-1092,-1096,-1096,-1096,-1092,-1092,-1084,-1084,-1088,-1088,-1088,-1092,-1088,-1088,-1088,-1088,-1088,-1096,-1100,-1100,-1108,-1116,-1124,-1120,-1116,-1108,-1100,-1100,-1108,-1112,-1116,-1124,-1128,-1128,-1128,-1128,-1124,-1120,-1124,-1124,-1124,-1124,-1124,-1120,-1120,-1120,-1116,-1116,-1120,-1120,-1120,-1128,-1124,-1112,-1108,-1096,-1080,-1068,-1064,-1060,-1056,-1056,-1056,-1052,-1052,-1048,-1044,-1040,-1036,-1036,-1036,-1040,-1036,-1024,-1024,-1024,-1016,-1016,-1012,-1008,-1004,-1000,-992,-980,-976,-972,-972,-972,-980,-980,-984,-996,-1004,-1012,-1020,-1028,-1028,-1032,-1040,-1052,-1060,-1072,-1076,-1080,-1084,-1088,-1088,-1092,-1104,-1116,-1124,-1136,-1140,-1132,-1132,-1132,-1128,-1128,-1132,-1136,-1140,-1144,-1140,-1128,-1120,-1116,-1104,-1100,-1100,-1096,-1096,-1104,-1104,-1104,-1108,-1112,-1124,-1144,-1168,-1180,-1188,-1188,-1176,-1164,-1152,-1132,-1100,-1060,-996,-900,-776,-644,-512,-376,-228,-76,56,152,160,52,-168,-484,-816,-1124,-1412,-1676,-1904,-2088,-2208,-2264,-2284,-2280,-2248,-2204,-2172,-2148,-2124,-2120,-2128,-2136,-2148,-2160,-2164,-2168,-2180,-2188,-2196,-2216,-2240,-2260,-2268,-2276,-2272,-2268,-2268,-2272,-2280,-2288,-2304,-2316,-2320,-2324,-2320,-2312,-2308,-2312,-2316,-2332,-2348,-2352,-2356,-2360,-2356,-2348,-2340,-2340,-2340,-2344,-2352,-2352,-2356,-2356,-2352,-2336,-2328,-2320,-2312,-2316,-2320,-2316,-2312,-2304,-2296,-2288,-2280,-2272,-2260,-2256,-2256,-2252,-2248,-2240,-2224,-2200,-2180,-2152,-2128,-2104,-2084,-2060,-2044,-2028,-2008,-1984,-1964,-1944,-1924,-1908,-1896,-1888,-1880,-1872,-1856,-1840,-1828,-1816,-1804,-1796,-1796,-1792,-1784,-1780,-1764,-1744,-1732,-1716,-1700,-1692,-1688,-1676,-1668,-1660,-1644,-1620,-1604,-1584,-1556,-1540,-1532,-1524,-1516,-1512,-1504,-1492,-1492,-1492,-1484,-1480,-1476,-1468,-1468,-1464,-1456,-1432,-1416,-1400,-1380,-1364,-1356,-1340,-1328,-1316,-1300,-1280,-1264,-1244,-1220,-1200,-1184,-1164,-1148,-1140,-1124,-1108,-1092,-1080,-1064,-1056,-1052,-1040,-1032,-1024,-1004,-984,-964,-948,-928,-912,-900,-892,-884,-876,-860,-844,-832,-816,-804,-792,-780,-772,-760,-752,-736,-720,-708,-696,-676,-660,-652,-640,-632,-628,-616,-600,-592,-580,-568,-564,-568,-572,-576,-576,-568,-556,-544,-528,-512,-496,-488,-480,-468,-460,-440,-416,-396,-372,-352,-336,-332,-324,-320,-320,-316,-304,-296,-288,-276,-268,-260,-248,-236,-228,-212,-196,-184,-172,-156,-140,-132,-120,-112
